MAV,WL,ZC,RMS,SSI,VAR,Label
0.1271875,10.5,28,0.17498604855101998,1.531005859375,0.03061533203125,0
0.15359375,11.046875,27,0.20049681944952,2.0099487304688,0.03997863769531201,0
0.11484375,9.6875,32,0.17105985680274,1.4630737304688,0.029131372070312998,0
0.24890625,19.1171875,30,0.34115676668231004,5.8193969726562,0.11629709472656001,0
0.280625,20.46875,28,0.35983326759591,6.4739990234375,0.12865341796875,0
0.218125,15.921875,28,0.28716862696419,4.123291015625,0.0822017578125,0
0.10453125,8.28125,30,0.14157232995672,1.0021362304688,0.019849340820312,0
0.0896875,6.6640625,26,0.11157387897150998,0.6224365234375,0.0120103515625,0
0.11140625,9.1015625,26,0.19674785080624,1.9354858398438,0.038646215820312996,0
0.1571875,12.6875,29,0.20311899029571,2.0628662109375,0.0410767578125,0
0.1084375,8.984375,30,0.16690981612460998,1.3929443359375,0.0277767578125,0
0.22171875,16.9296875,26,0.34000265681407,5.7800903320312,0.11556838378906001,0
0.23984375,17.6171875,26,0.33957155047298,5.7654418945312,0.11329787597656,0
0.19109375,12.9609375,23,0.27133342251163,3.6810913085938,0.07253488769531301,0
0.11265625,7.7109375,28,0.15280978397382,1.1675415039062,0.023190649414063,0
0.1515625,10.40625,27,0.19519996758132,1.9051513671875,0.03708701171875,0
0.200625,16.28125,29,0.29477464247074,4.3446044921875,0.0862513671875,0
0.14765625,13.0390625,32,0.19534687197553002,1.9080200195312,0.037495727539062995,0
0.06375,4.5234375,24,0.088014669409423,0.3873291015625,0.00760556640625,0
0.0775,5.2265625,25,0.14383489341081,1.034423828125,0.0206494140625,0
0.09421875,6.53125,22,0.15193655516982998,1.1542358398438,0.023075903320312997,0
0.09015625,6.21875,22,0.15219343545920003,1.1581420898438,0.022883325195312002,0
0.11703125,7.3671875,23,0.16199968050702,1.3121948242188,0.026198754882812997,0
0.179375,12.1171875,25,0.23155596313311,2.680908203125,0.05361728515625,0
0.25640625,18.875,24,0.33955357583064005,5.7648315429688,0.11472512207031,0
0.1609375,14.203125,35,0.21926279181612,2.40380859375,0.04794248046875,0
0.1421875,11.5546875,24,0.24284185794206,2.9486083984375,0.0585595703125,0
0.1346875,9.0,22,0.22349758807422998,2.49755859375,0.04978701171875,0
0.13359375,9.2578125,28,0.1933495104807,1.8692016601562,0.03726779785156201,0
0.11890625,9.7265625,34,0.17602587145609,1.5492553710938,0.029682348632812,0
0.0465625,3.46875,19,0.07012126772599,0.245849609375,0.00485595703125,0
0.05546875,4.1015625,22,0.07753684859874702,0.30059814453125,0.0059748291015625,0
0.05640625,3.6171875,21,0.075801382634982,0.28729248046875,0.0057305908203125,0
0.09875,7.7421875,25,0.14176620277767002,1.0048828125,0.01999130859375,0
0.093125,5.8515625,21,0.13314297120482999,0.8863525390625,0.017715234375,0
0.11390625,6.921875,22,0.16470484372621,1.3563842773438,0.027086645507812,0
0.09359375,7.3828125,26,0.14574448558393,1.0620727539062,0.021156469726562002,0
0.06375,4.8359375,25,0.085167000468198,0.3626708984375,0.00711240234375,0
0.13890625,10.640625,21,0.21018093488855,2.2088012695312003,0.04370432128906299,0
0.20890625,14.0625,21,0.30362997564367,4.6095581054688,0.091604614257812,0
0.176875,13.0078125,24,0.26624468157834,3.5443115234375,0.07082998046875,0
0.11125,8.7109375,26,0.15136907760917,1.1456298828125,0.02277158203125,0
0.05390625,3.8984375,23,0.07331272644892599,0.26873779296875,0.0053161376953125,0
0.1375,11.6875,27,0.20798864715110998,2.1629638671875,0.0431107421875,0
0.14828125,12.5390625,29,0.21543526525531,2.3206176757812003,0.04640822753906299,0
0.0709375,5.828125,31,0.09015232335469801,0.4063720703125,0.00801455078125,0
0.12828125,10.359375,23,0.20373406283529003,2.0753784179688,0.041022192382812996,0
0.205625,14.3359375,25,0.30097092233927003,4.5291748046875,0.08992685546875,0
0.1709375,13.2890625,29,0.26291355072771,3.4561767578125,0.06881728515625,0
0.13453125,8.6171875,23,0.18975531633692,1.8003540039062,0.03592209472656201,0
0.21765625,16.21875,25,0.29480155865323,4.3453979492188,0.086755590820313,0
0.2615625,22.8984375,32,0.3507420983162,6.1510009765625,0.12294345703125,0
0.17140625,12.8984375,29,0.22784925543685,2.5957641601562003,0.051894750976562994,0
0.06671875,5.4765625,36,0.0865390875378,0.37445068359375,0.0073858642578125,0
0.10515625,7.71875,28,0.14413586120177,1.0387573242188,0.020393676757812,0
0.13578125,10.7421875,29,0.18986464648369,1.8024291992188,0.035888403320312005,0
0.18375,16.9609375,35,0.26671193056601,3.5567626953125,0.07113515625,0
0.0453125,3.125,27,0.06263656954008599,0.1961669921875,0.00382333984375,0
0.060625,4.1171875,24,0.08487985534713201,0.3602294921875,0.00703232421875,0
0.0628125,4.5,26,0.08531021059199201,0.3638916015625,0.00718994140625,0
0.2434375,18.8515625,24,0.34186628759465004,5.8436279296875,0.11686630859375,0
0.245625,20.53125,35,0.32996137913209,5.4437255859375,0.10879794921875,0
0.1090625,8.28125,31,0.14479072991304,1.0482177734375,0.02072021484375,0
0.0928125,7.5234375,34,0.11278176520387,0.635986328125,0.0124755859375,0
0.13671875,11.0390625,27,0.19728689551165,1.9461059570312,0.038621313476562995,0
0.16140625,12.0546875,26,0.23033762159464002,2.6527709960937997,0.052970434570312995,0
0.09046875,7.46875,28,0.13207053779373,0.87213134765625,0.017363305664062,0
0.24359375,20.0,26,0.34853382917319,6.0737915039062,0.12147287597656001,0
0.2771875,22.5078125,25,0.40592835824964,8.2388916015625,0.16465126953125,0
0.24546875,20.7109375,29,0.35640587324617995,6.3512573242188,0.12701437988281,0
0.07140625,5.7109375,29,0.09866664797121198,0.48675537109375,0.0095329345703125,0
0.12546875,10.21875,30,0.16949704436029003,1.4364624023438,0.028460083007812,0
0.25859375,20.9765625,28,0.35304375448111996,6.2319946289062,0.12462697753906,0
0.25015625,19.125,26,0.33706026039957004,5.6804809570312,0.11333010253906001,0
0.04546875,3.3984375,25,0.062957311305956,0.19818115234375,0.0037145751953125,0
0.06703125,5.3671875,23,0.13838934687367999,0.95758056640625,0.018931274414061998,0
0.1134375,9.546875,22,0.25348161607402997,3.212646484375,0.06411923828125,0
0.0940625,7.5,20,0.19439157887495997,1.889404296875,0.03737548828125,0
0.095,7.1796875,24,0.13749112187247,0.9451904296875,0.01889404296875,0
0.09859375,7.3046875,20,0.15046720858504,1.1320190429688,0.022495629882812,0
0.21515625,16.703125,26,0.32072572431031,5.1432495117188,0.10285793457031,0
0.12421875,8.7421875,19,0.15693988324554,1.2315063476562,0.024418969726562,0
0.05875,4.4296875,20,0.080737566767274,0.325927734375,0.0064056640625,0
0.10859375,8.8671875,29,0.1689271350409,1.4268188476562,0.028495336914063,0
0.19828125,15.1640625,26,0.32731857749275,5.3568725585938,0.10630187988281001,0
0.20765625,18.09375,25,0.32080564172973,5.1458129882812,0.10291506347656,0
0.14,8.8984375,17,0.20502119745589997,2.1016845703125,0.0417796875,0
0.0409375,2.9609375,26,0.055814284685912,0.15576171875,0.00303310546875,0
0.094375,7.078125,23,0.13300537465644,0.884521484375,0.0176587890625,0
0.09796875,6.4921875,24,0.17803931601439998,1.5848999023438,0.031184692382812997,0
0.0790625,5.1796875,21,0.10966479465853998,0.601318359375,0.01194423828125,0
0.16046875,10.875,23,0.20497653733873003,2.1007690429688,0.041965942382812996,0
0.21125,14.9765625,28,0.28941701233903,4.1881103515625,0.083691015625,0
0.1278125,10.8515625,31,0.18186184445548,1.6536865234375,0.03307216796875,0
0.033125,2.4765625,22,0.042647950199863,0.0909423828125,0.001790625,0
0.03171875,2.1328125,21,0.04639072762282401,0.10760498046875,0.0020835205078125,0
0.036875,2.5546875,24,0.054999112208744,0.1512451171875,0.00294833984375,0
0.0440625,3.5,28,0.062675534750411,0.1964111328125,0.0038765625,0
0.06671875,3.828125,18,0.085460322939215,0.36517333984375,0.0073022705078125,0
0.134375,8.9453125,20,0.17313458908461998,1.498779296875,0.0299615234375,0
0.17015625,13.0546875,28,0.24020610860129002,2.8849487304688,0.05764504394531201,0
0.113125,9.90625,32,0.15032516838507,1.1298828125,0.02258583984375,0
0.1209375,9.484375,30,0.16174705368259,1.30810546875,0.026123046875,0
0.02453125,1.8515625,18,0.032532285646339004,0.05291748046875,0.0010173095703125,0
0.03046875,1.9453125,23,0.03803331701449399,0.07232666015625,0.0013164306640625,0
0.03875,2.859375,29,0.060716747586642,0.184326171875,0.00367001953125,0
0.08859375,5.1875,21,0.11584122518828999,0.67095947265625,0.013418579101562,0
0.08859375,5.609375,23,0.13088211089802998,0.85650634765625,0.017126000976562,0
0.15203125,11.3046875,24,0.25042200710126,3.1355590820312,0.062687719726563,0
0.10890625,8.5546875,30,0.136220072688,0.92779541015625,0.018538110351563,0
0.04859375,3.453125,22,0.064773116650544,0.20977783203125,0.0041105712890625,0
0.0915625,7.3203125,30,0.15193253796916,1.1541748046875,0.0227435546875,0
0.08453125,5.0625,23,0.12963572008469001,0.84027099609375,0.016796606445313,0
0.1059375,9.53125,38,0.14869221566713,1.10546875,0.022108984375,0
0.10828125,7.4921875,26,0.14518223327727,1.0538940429688,0.020875708007813,0
0.0628125,4.484375,28,0.091282635431116,0.4166259765625,0.00817626953125,0
0.02828125,2.125,25,0.03561334787512999,0.06341552734375,0.0012143798828125,0
0.10140625,7.421875,21,0.14208873630367003,1.0094604492188,0.020168676757813,0
0.12484375,9.359375,24,0.17781977687219003,1.5809936523438,0.031482543945312004,0
0.1728125,11.4140625,21,0.22344296321992002,2.496337890625,0.04986572265625,0
0.06796875,4.34375,19,0.08468548198702701,0.35858154296875,0.0070807861328125,0
0.11078125,7.34375,28,0.15926390122804002,1.2682495117188,0.025268090820312002,0
0.23578125,17.703125,26,0.33894907376975997,5.7443237304688,0.11455227050781,0
0.17,13.328125,26,0.27320525851683,3.7320556640625,0.07456455078125,0
0.1071875,7.515625,23,0.13929054335722,0.9700927734375,0.01926083984375,0
0.1625,10.5625,21,0.249506348554,3.1126708984375,0.06224365234375,0
0.168125,12.140625,21,0.23957767203455999,2.869873046875,0.0573958984375,0
0.23359375,16.546875,24,0.32342051585841997,5.2300415039062,0.10458791503906001,0
0.09140625,6.390625,21,0.12138825075713001,0.73675537109375,0.014714575195312,0
0.1771875,11.984375,21,0.27559860276088,3.7977294921875,0.0759521484375,0
0.23984375,14.859375,20,0.3305767775561,5.4640502929688,0.10916477050781001,0
0.16953125,11.6953125,23,0.24960173354892,3.1150512695312,0.06228576660156299,0
0.1003125,6.7421875,21,0.12601153221035,0.7939453125,0.015812890625,0
0.1278125,10.0390625,25,0.20385685464929,2.077880859375,0.0409326171875,0
0.15578125,11.6328125,23,0.22748465350024,2.5874633789062003,0.051742211914062995,0
0.1696875,12.3671875,25,0.22973532665330001,2.638916015625,0.0527767578125,0
0.096875,7.125,24,0.13322546092058002,0.887451171875,0.01768798828125,0
0.1959375,14.140625,24,0.28368305239959,4.0238037109375,0.0804642578125,0
0.270625,18.2265625,24,0.35912355333853996,6.448486328125,0.12895322265625,0
0.18390625,13.109375,26,0.25858076817868,3.3432006835938,0.06681008300781201,0
0.1078125,7.3046875,21,0.14294099798956,1.0216064453125,0.0203125,0
0.22578125,16.015625,26,0.29991657368653996,4.4974975585938,0.089912817382812,0
0.26859375,21.9453125,31,0.35575452111937,6.3280639648438,0.12645168457031,0
0.24390625,19.0390625,27,0.32571098612785,5.3043823242188,0.10585793457031001,0
0.10765625,7.3984375,27,0.15783183668663,1.2455444335938,0.024825903320312998,0
0.234375,17.2578125,22,0.3275366749503,5.364013671875,0.10726845703125,0
0.18796875,14.2578125,28,0.25264953415626,3.1915893554688,0.063687036132812,0
0.19015625,12.15625,25,0.26431432149407996,3.4931030273438,0.069765161132812,0
0.105625,7.578125,24,0.14615013951841,1.0679931640625,0.021331640625,0
0.1621875,12.1640625,23,0.2744356780855,3.7657470703125,0.07522109375,0
0.14859375,11.15625,22,0.26025124954671,3.3865356445312,0.06767209472656201,0
0.0771875,5.7265625,23,0.11043017802553,0.6097412109375,0.0121009765625,0
0.1215625,7.4609375,27,0.15706039841411,1.2333984375,0.02399521484375,0
0.1946875,12.46875,22,0.26753905964831,3.578857421875,0.0711771484375,0
0.13734375,8.578125,24,0.17402420471913,1.5142211914062,0.030073266601562003,0
0.06671875,4.1328125,24,0.090954412087182,0.41363525390625,0.0081631103515625,0
0.05625,3.796875,27,0.073901459939909,0.2730712890625,0.005355078125,0
0.050625,3.8203125,25,0.06773036500529099,0.2293701171875,0.00451083984375,0
0.04578125,3.1640625,20,0.063015452593987,0.19854736328125,0.0038027587890625,0
0.1028125,7.5390625,27,0.14417396718028,1.039306640625,0.02075087890625,0
0.1278125,8.984375,27,0.16167911652018999,1.3070068359375,0.02606357421875,0
0.0953125,6.7421875,27,0.12920656305893,0.834716796875,0.01662314453125,0
0.1309375,9.1328125,21,0.20228793873153,2.0460205078125,0.04091689453125,0
0.07515625,5.4453125,28,0.11608333987647,0.67376708984375,0.013445434570312,0
0.11671875,9.5390625,29,0.19321056458078,1.8665161132812,0.03726174316406201,0
0.1653125,14.6796875,31,0.28007567336793,3.922119140625,0.07844228515625,0
0.1178125,8.96875,27,0.19751260837919002,1.9505615234375,0.03901083984375,0
0.11015625,7.40625,24,0.15495951462197,1.2006225585938,0.023643090820312997,0
0.1175,8.2890625,25,0.1537455537975,1.181884765625,0.0234126953125,0
0.08875,6.5234375,25,0.11902722574584,0.7083740234375,0.0138041015625,0
0.09625,6.8359375,23,0.13523525508811998,0.9144287109375,0.0181244140625,0
0.0815625,5.3984375,19,0.12125241621304,0.735107421875,0.01464111328125,0
0.1778125,13.3671875,30,0.24258032658019,2.9422607421875,0.0588404296875,0
0.329375,27.8125,32,0.42995446252335995,9.2430419921875,0.1846263671875,0
0.22671875,18.015625,28,0.32739315707093997,5.3593139648438,0.10718566894531001,0
0.095625,6.1484375,25,0.13284925961875,0.8824462890625,0.01761728515625,0
0.120625,8.484375,25,0.18020983862570003,1.623779296875,0.03232705078125,0
0.08890625,6.109375,22,0.11781602282531001,0.69403076171875,0.013783715820313,0
0.1025,6.5625,19,0.13680577587405,0.935791015625,0.01867275390625,0
0.17296875,13.625,29,0.26458666541536996,3.5003051757812,0.069705297851563,0
0.12421875,8.359375,22,0.17244578518516002,1.4868774414062,0.029722290039062998,0
0.13546875,10.9453125,28,0.18342911501279,1.6823120117188,0.033387231445312,0
0.099375,7.375,25,0.13257331403322,0.8787841796875,0.0175677734375,0
0.10421875,7.8203125,27,0.1363544252926,0.92962646484375,0.018579614257812,0
0.08421875,6.1328125,25,0.11987033196072999,0.71844482421875,0.014366918945312,0
0.169375,10.875,22,0.25459162305789,3.2408447265625,0.06476064453125,0
0.2671875,20.3515625,27,0.36126540840842003,6.525634765625,0.1303236328125,0
0.18890625,14.1484375,27,0.27656912068346995,3.8245239257812,0.076453344726563,0
0.11984375,7.4609375,21,0.17200634186164002,1.4793090820312,0.029506860351562997,0
0.13640625,10.28125,24,0.17955497830574,1.6119995117188,0.031422387695312,0
0.08328125,6.140625,25,0.10691999235702,0.57159423828125,0.011386743164062,0
0.24890625,20.8671875,33,0.33715440928916,5.6836547851562,0.11367248535156001,0
0.12703125,9.0703125,29,0.18269560899725001,1.6688842773438,0.033319067382812005,0
0.20765625,12.640625,20,0.32377888083053996,5.2416381835938,0.10431945800781,0
0.27265625,19.78125,23,0.38328892547348997,7.3455200195312,0.14688693847656,0
0.2271875,15.6796875,25,0.32745467243573995,5.361328125,0.10715537109375,0
0.0884375,5.3984375,18,0.12757121173094,0.813720703125,0.0161021484375,0
0.161875,12.015625,24,0.21413662037937,2.292724609375,0.04579345703125,0
0.14796875,10.203125,25,0.22061426585076999,2.4335327148437997,0.048450317382812004,0
0.1378125,9.984375,26,0.1968563979307,1.9376220703125,0.03842392578125,0
0.06328125,4.0546875,16,0.12354129338758,0.76312255859375,0.015013403320313,0
0.098125,5.953125,18,0.21764789332486,2.3685302734375,0.04614560546875,0
0.11984375,8.5234375,23,0.23378310677982003,2.7327270507812,0.054653930664062995,0
0.1109375,7.421875,22,0.21122665366556,2.2308349609375,0.04413818359375,0
0.085,5.7890625,22,0.12710147582247,0.8077392578125,0.0161265625,0
0.10484375,7.1171875,18,0.16201475024477,1.3124389648438,0.026199340820312,0
0.1890625,11.015625,16,0.25811535242261,3.3311767578125,0.066571875,0
0.1415625,9.4765625,19,0.223109461994,2.4888916015625,0.04975283203125,0
0.12671875,9.3203125,27,0.18193230948453,1.6549682617188,0.033020043945313,0
0.19203125,11.921875,18,0.25620950518448005,3.2821655273438,0.06562277832031299,0
0.2375,18.6953125,26,0.32643538195752003,5.3280029296875,0.1057154296875,0
0.21125,14.6875,20,0.28747452332772,4.132080078125,0.08164541015625,0
0.10234375,6.7109375,22,0.14916352053828,1.1124877929688,0.022164770507812997,0
0.08359375,5.890625,28,0.11774347281538,0.69317626953125,0.013726196289062,0
0.08625,6.5390625,25,0.11922192410585002,0.710693359375,0.0139697265625,0
0.0725,4.4609375,17,0.09235947941332301,0.426513671875,0.00845908203125,0
0.08578125,6.7890625,25,0.11605178834523,0.67340087890625,0.013377172851563,0
0.1259375,8.96875,22,0.16363038331481,1.3387451171875,0.02653076171875,0
0.1428125,10.90625,23,0.20753623554093,2.153564453125,0.0429947265625,0
0.1353125,9.484375,19,0.16859802184115,1.4212646484375,0.0283822265625,0
0.06671875,5.296875,19,0.091329428187879,0.41705322265625,0.0081808837890625,0
0.07390625,4.7265625,21,0.11168869788110002,0.62371826171875,0.012420434570312,0
0.15984375,13.9375,29,0.24835149847922,3.0839233398438,0.061633325195312005,0
0.168125,15.0703125,28,0.27244014537601,3.711181640625,0.0741919921875,0
0.09578125,8.4375,29,0.14343120220379,1.0286254882812,0.020539086914061998,0
0.1153125,8.65625,24,0.1625600850455,1.3212890625,0.026422265625,0
0.09046875,6.9453125,22,0.14297088454691,1.0220336914062,0.020427758789063,0
0.141875,10.5078125,29,0.18919804025809,1.789794921875,0.03579111328125,0
0.08890625,6.21875,20,0.12782453335774,0.81695556640625,0.016248266601562,0
0.228125,17.578125,23,0.3197823356402,5.113037109375,0.1022291015625,0
0.3571875,32.328125,38,0.46301966160332003,10.719360351562,0.21437744140625,0
0.255,22.2734375,34,0.35857247349734,6.4287109375,0.128573828125,0
0.09953125,7.765625,21,0.14296234616806,1.0219116210938,0.020401098632812,0
0.11375,9.875,27,0.16332423178298,1.333740234375,0.02663173828125,0
0.09375,7.0078125,24,0.13201044584615,0.871337890625,0.01738369140625,0
0.24671875,23.1640625,31,0.3811171002994,7.2625122070312,0.14501096191406002,0
0.11890625,9.328125,24,0.20295966829182,2.0596313476562,0.041083032226562004,0
0.06078125,4.0546875,21,0.07653858044721601,0.29290771484375,0.0057673095703125,0
0.11875,9.2421875,28,0.1538804705567,1.1839599609375,0.0235455078125,0
0.13,11.2734375,31,0.18259201447489,1.6669921875,0.03318359375,0
0.0478125,3.5859375,21,0.062206341366857,0.1934814453125,0.00379306640625,0
0.08921875,6.7109375,23,0.14144293377764003,1.0003051757812,0.020000610351562,0
0.0596875,4.328125,23,0.08076779989575099,0.326171875,0.00647177734375,0
0.15921875,12.65625,24,0.21239370043477,2.2555541992187997,0.04481027832031299,0
0.3325,27.5390625,27,0.43828333889876997,9.6046142578125,0.19209072265625,0
0.215,17.1875,29,0.27717974904608,3.8414306640625,0.076767578125,0
0.0953125,6.8203125,20,0.12660107436846998,0.8013916015625,0.015830078125,0
0.11921875,9.28125,25,0.16798510094834,1.4109497070312,0.028210180664062997,0
0.0875,6.5703125,24,0.14216174217243,1.010498046875,0.02013876953125,0
0.11125,8.984375,27,0.15809844144551002,1.249755859375,0.02499501953125,0
0.0596875,4.265625,24,0.08044978538660001,0.3236083984375,0.00646865234375,0
0.1303125,10.0625,22,0.19590535023322,1.9189453125,0.03835693359375,0
0.301875,24.53125,25,0.42082624272079,8.854736328125,0.1768880859375,0
0.193125,14.2578125,20,0.27195580695676,3.697998046875,0.0739408203125,0
0.0746875,4.8671875,21,0.10038986502630999,0.50390625,0.009965234375,0
0.1071875,7.203125,22,0.14706603268175,1.0814208984375,0.0214126953125,0
0.126875,10.1796875,27,0.18537862437455,1.71826171875,0.03425888671875,0
0.091875,7.1953125,29,0.12215512678557999,0.74609375,0.01472412109375,0
0.03109375,2.0078125,16,0.039171722302255,0.07672119140625,0.0013970947265625,0
0.03765625,2.3125,20,0.06775739408452,0.22955322265625,0.0045539306640625,0
0.100625,6.875,24,0.20283633334538,2.05712890625,0.041103515625,0
0.06703125,4.0625,17,0.1276238292674,0.81439208984375,0.016208520507813,0
0.07453125,5.6015625,22,0.09933248894181099,0.49334716796875,0.0098298095703125,0
0.12234375,9.125,24,0.17202763109273,1.4796752929688,0.029592309570313,0
0.084375,6.1171875,20,0.11098150535675,0.6158447265625,0.01216064453125,0
0.09421875,7.359375,27,0.14022947850087,0.98321533203125,0.019600805664062,0
0.14078125,10.1953125,25,0.23902420036343,2.8566284179688,0.056647192382812996,0
0.065,4.8515625,22,0.10615804844664,0.5634765625,0.01099521484375,0
0.06921875,4.5703125,24,0.09001003633276099,0.40509033203125,0.0079717041015625,0
0.02234375,1.7109375,13,0.031386420979064,0.04925537109375,0.0009057861328125,0
0.0290625,2.3125,24,0.03681005934184299,0.0677490234375,0.0013033203125,0
0.04328125,3.015625,22,0.07135511708612799,0.25457763671875,0.0050710205078125,0
0.035625,2.640625,24,0.051916399143238,0.134765625,0.002629296875,0
0.06703125,5.3359375,27,0.082981843364226,0.34429931640625,0.0067177978515625,0
0.09625,8.171875,29,0.13645733937297,0.9310302734375,0.0185595703125,0
0.08359375,6.6328125,30,0.10335556611463001,0.53411865234375,0.010572778320313,0
0.0590625,3.9765625,23,0.074739129644384,0.279296875,0.005257421875,0
0.0296875,2.2421875,17,0.03912495007984,0.0765380859375,0.00145419921875,0
0.08453125,6.0,27,0.13559133366711,0.91925048828125,0.018126000976563,0
0.11625,9.1484375,22,0.21753008053485,2.365966796875,0.0463427734375,0
0.15140625,11.984375,25,0.21507799729836,2.3129272460937997,0.04622512207031299,0
0.095625,8.5,26,0.15090870584562,1.138671875,0.02238583984375,0
0.12875,11.21875,26,0.20460399059829998,2.0931396484375,0.04184365234375,0
0.1090625,8.9296875,26,0.15186021018522,1.153076171875,0.0229615234375,0
0.05390625,4.03125,27,0.065838566181798,0.21673583984375,0.0040446533203125,0
0.0334375,2.375,22,0.040894538525945,0.0836181640625,0.001590234375,0
0.07921875,5.7421875,25,0.1342886713972,0.90167236328125,0.017764282226563,0
0.12234375,9.84375,23,0.21910963740357,2.4004516601562003,0.046922094726562995,0
0.10359375,9.390625,27,0.15331222610045,1.1752319335938,0.023235473632812,0
0.08125,5.484375,19,0.11258677209157002,0.6337890625,0.01256943359375,0
0.14234375,11.3515625,22,0.20937208486777,2.1918334960938,0.043513793945312004,0
0.0971875,7.421875,22,0.14296661542122,1.02197265625,0.0202671875,0
0.04421875,3.171875,24,0.056412525620424,0.15911865234375,0.0029889892578125,0
0.0309375,1.9453125,20,0.039280640906177,0.0771484375,0.001336328125,0
0.0840625,5.9453125,19,0.11509591787938998,0.662353515625,0.01316494140625,0
0.1084375,7.96875,25,0.1492330654128,1.113525390625,0.02217666015625,0
0.03671875,2.1953125,17,0.045379799160805,0.10296630859375,0.0019624267578125,0
0.03109375,2.28125,19,0.04548727071253,0.10345458984375,0.0019897705078125,0
0.09796875,7.3359375,23,0.14587006605838002,1.0639038085938,0.021204223632812998,0
0.18390625,14.265625,26,0.29003005299559,4.2058715820312,0.084114477539062,0
0.2471875,14.34375,24,0.32138919649702,5.16455078125,0.10323935546875,0
0.18421875,14.25,22,0.27059910745072,3.6611938476562,0.07322385253906301,0
0.12296875,8.984375,24,0.17832020553803002,1.5899047851562,0.031739477539062,0
0.105625,8.1640625,23,0.16356322840877,1.337646484375,0.0262181640625,0
0.1715625,13.4140625,24,0.26519266286513,3.516357421875,0.0693892578125,0
0.15609375,10.6171875,21,0.21912077951582998,2.4006958007812003,0.047594946289062995,0
0.09171875,6.96875,26,0.14339715527382002,1.0281372070312,0.020410375976562,0
0.191875,15.0703125,26,0.3,4.5,0.08990615234375,0
0.31515625,19.1484375,23,0.39741136246417,7.8967895507812,0.15792287597656002,0
0.25078125,20.0625,26,0.34030051918764004,5.7902221679688,0.11576730957031,0
0.16953125,11.6171875,26,0.22113377508732998,2.4450073242187997,0.04880930175781201,0
0.05703125,3.34375,20,0.073942743368602,0.27337646484375,0.0051557861328125,0
0.09609375,6.8046875,27,0.11817810479579,0.69830322265625,0.013955297851562,0
0.1059375,7.65625,21,0.14857723685848,1.103759765625,0.0220279296875,0
0.0471875,3.3046875,30,0.065251915680691,0.212890625,0.004210546875,0
0.08359375,6.3359375,23,0.14416126630660997,1.0391235351562,0.020597680664062,0
0.1478125,10.734375,21,0.26804504198222,3.5924072265625,0.07174814453125,0
0.1415625,11.1875,30,0.23250819037992998,2.7030029296875,0.05398349609375,0
0.07203125,5.7109375,27,0.10132785394142999,0.51336669921875,0.010018286132813,0
0.1403125,10.828125,24,0.20403641678632004,2.08154296875,0.04155966796875,0
0.1090625,7.3515625,24,0.13914148038057997,0.968017578125,0.0192474609375,0
0.11984375,8.1484375,25,0.15268191634285,1.1655883789062,0.023237915039062997,0
0.05640625,4.34375,29,0.081077039463248,0.32867431640625,0.0065283447265625,0
0.1034375,7.890625,25,0.16261264124831,1.3221435546875,0.02638662109375,0
0.09046875,6.953125,25,0.12373875422387,0.76556396484375,0.015293481445312,0
0.099375,7.8046875,29,0.1310917945325,0.8592529296875,0.0170365234375,0
0.23421875,18.8828125,21,0.34254226757894,5.8667602539062,0.11701232910156001,0
0.1221875,9.3828125,28,0.17820721786729002,1.587890625,0.03175771484375,0
0.03296875,2.234375,19,0.043427944092772994,0.09429931640625,0.0018365478515625,0
0.03671875,2.875,22,0.047173528560782996,0.11126708984375,0.0021954345703125,0
0.06671875,4.96875,25,0.09212789386567499,0.42437744140625,0.0084670166015625,0
0.1153125,8.515625,18,0.17123460240997002,1.466064453125,0.0284947265625,0
0.166875,12.8359375,25,0.22205648387572002,2.4654541015625,0.04930751953125,0
0.0890625,6.25,22,0.12820119685479,0.82177734375,0.01643544921875,0
0.03125,1.9375,19,0.040715044439986,0.0828857421875,0.00162607421875,0
0.0284375,2.125,18,0.044359592395557,0.098388671875,0.00194580078125,0
0.03609375,2.453125,18,0.050328510651269996,0.12664794921875,0.0025288330078125,0
0.03359375,2.640625,22,0.047251095390742,0.11163330078125,0.0022326416015625,0
0.06296875,4.0625,25,0.085374576774207,0.36444091796875,0.0072094970703125,0
0.0903125,5.796875,13,0.13231524560212,0.8753662109375,0.0174720703125,0
0.11984375,9.609375,23,0.17736611918395,1.5729370117188,0.031124536132812998,0
0.15109375,11.921875,25,0.21854622204896,2.3881225585937997,0.047751684570312994,0
0.026875,1.875,17,0.03507803800100601,0.0615234375,0.001164453125,0
0.02515625,1.53125,16,0.033274280373511,0.05535888671875,0.0010436767578125,0
0.0271875,1.8359375,21,0.039559340316163,0.0782470703125,0.001553125,0
0.0271875,1.7890625,17,0.038432418363278,0.0738525390625,0.001433984375,0
0.0759375,5.515625,27,0.09916644782888999,0.49169921875,0.00974609375,0
0.09171875,6.328125,15,0.12311568016758001,0.75787353515625,0.014981079101562,0
0.1825,13.59375,24,0.28678579767834006,4.1123046875,0.08218505859375,0
0.0946875,7.1796875,23,0.12810594370481,0.820556640625,0.01638916015625,0
0.05265625,3.78125,22,0.069201288711808,0.23944091796875,0.0047436767578125,0
0.07375,5.6015625,19,0.12101055609946001,0.732177734375,0.0145556640625,0
0.0765625,5.6171875,22,0.12881862552151,0.8297119140625,0.01656259765625,0
0.0721875,5.2578125,19,0.10589324296786001,0.5606689453125,0.011178125,0
0.06671875,4.9921875,22,0.09261684975950699,0.42889404296875,0.0085239501953125,0
0.09828125,7.0546875,23,0.16124439791625,1.2999877929688,0.025984497070312997,0
0.109375,8.8046875,27,0.14598299612027,1.0655517578125,0.02055478515625,0
0.1453125,10.859375,26,0.2286007453646,2.6129150390625,0.052094140625,0
0.05859375,4.2421875,23,0.07949578654321901,0.31597900390625,0.0060400634765625,0
0.14953125,12.5625,30,0.21649225502169,2.3434448242187997,0.04649953613281299,0
0.11203125,9.1953125,29,0.17939854483976003,1.6091918945312,0.032067602539062004,0
0.28921875,21.859375,29,0.39396850336115,7.7605590820312,0.15433908691406,0
0.3096875,23.28125,25,0.39380889936459007,7.7542724609375,0.15487880859375,0
0.194375,16.1640625,29,0.28090256317805,3.9453125,0.07890615234375,0
0.12765625,8.265625,21,0.18874262713249,1.7811889648438,0.035374731445312994,0
0.1428125,10.15625,27,0.22174842340195,2.4586181640625,0.048991796875,0
0.10859375,7.3203125,27,0.19455164300739,1.8925170898438,0.03767395019531299,0
0.1690625,13.0625,30,0.23853598064548,2.844970703125,0.05632041015625,0
0.1175,9.0703125,31,0.17991154510620003,1.618408203125,0.03226181640625,0
0.2184375,16.96875,23,0.33995418464295,5.7784423828125,0.1141859375,0
0.27171875,20.609375,26,0.37560010576826,7.0537719726562,0.14107248535156,0
0.16890625,14.59375,29,0.25156492623054,3.1642456054688,0.063073754882812,0
0.10453125,6.40625,19,0.17284880382686,1.4938354492188,0.029843286132812997,0
0.12578125,8.3046875,22,0.21010541903857,2.2072143554687997,0.044117700195312005,0
0.1034375,6.2734375,26,0.18940439128357,1.793701171875,0.03581298828125,0
0.11453125,8.0,31,0.15864184923319,1.2583618164062,0.025113305664062002,0
0.08078125,5.9453125,31,0.10610629068003001,0.56292724609375,0.011199926757812,0
0.175625,12.78125,20,0.22903819789229002,2.6229248046875,0.0523388671875,0
0.29875,21.90625,28,0.38782118745306,7.520263671875,0.15037001953125,0
0.176875,13.5078125,26,0.23101233564195,2.6683349609375,0.05326669921875,0
0.06796875,5.296875,19,0.09345657205020402,0.43670654296875,0.0085229736328125,0
0.09484375,6.6640625,24,0.13647075722705002,0.93121337890625,0.017788696289062,0
0.10875,8.9375,30,0.16392106999254002,1.343505859375,0.0268228515625,0
0.08,5.703125,24,0.11056274731459,0.6112060546875,0.0122021484375,0
0.1015625,6.78125,21,0.13215831533619,0.873291015625,0.01721181640625,0
0.12265625,8.9609375,27,0.18301604587269002,1.6747436523438,0.033491918945312005,0
0.15828125,11.203125,22,0.20915041593163003,2.1871948242188,0.043713989257812995,0
0.0628125,4.2421875,18,0.08503790515117401,0.361572265625,0.0071548828125,0
0.1259375,10.5390625,27,0.18393087398871,1.6915283203125,0.03382080078125,0
0.23890625,18.34375,29,0.35969584862162,6.4690551757812,0.12894924316406,0
0.2365625,19.359375,30,0.3358030254107299,5.63818359375,0.11275390625,0
0.068125,5.296875,20,0.086785587981243,0.3765869140625,0.00743173828125,0
0.10484375,7.8359375,24,0.14812879082702,1.0971069335938,0.021939184570312003,0
0.10515625,6.9453125,17,0.16207501518394002,1.3134155273438,0.026244848632812998,0
0.1275,10.0859375,28,0.17349379716938002,1.5050048828125,0.030071875,0
0.03546875,2.2890625,18,0.04794354997676999,0.11492919921875,0.0022491455078125,0
0.0409375,3.0546875,19,0.077764794613308,0.3023681640625,0.00602822265625,0
0.068125,4.78125,22,0.15270989653588002,1.166015625,0.02302490234375,0
0.06109375,4.203125,25,0.10712530083097,0.57379150390625,0.011152954101562,0
0.11921875,9.875,30,0.16910769382076002,1.4298706054688,0.028533911132812003,0
0.1075,7.140625,22,0.16611072643722,1.379638671875,0.02751064453125,0
0.16421875,11.5390625,22,0.26004478655729,3.3811645507812,0.067623071289062,0
0.14453125,10.375,24,0.19018584147321999,1.8085327148438,0.036137231445312994,0
0.04984375,3.40625,25,0.064998873187348,0.21124267578125,0.0041797119140625,0
0.0596875,3.875,23,0.07901060549856599,0.3121337890625,0.006242578125,0
0.05125,3.7265625,22,0.071037924510433,0.2523193359375,0.0050111328125,0
0.04609375,3.65625,27,0.060505278049729,0.18304443359375,0.0036157470703125,0
0.1175,7.0703125,20,0.17670762840777,1.561279296875,0.0312115234375,0
0.11109375,7.2578125,17,0.19293237258331,1.8611450195312,0.03719943847656299,0
0.1203125,8.1171875,22,0.21720436085630998,2.35888671875,0.047051171875,0
0.1090625,7.6015625,27,0.14158526307053,1.0023193359375,0.0200244140625,0
0.06625,4.484375,24,0.092912929670741,0.431640625,0.00858974609375,0
0.18171875,12.359375,28,0.24037883106021,2.8890991210938,0.05774094238281201,0
0.1515625,10.5390625,21,0.22721887678789002,2.5814208984375,0.05159677734375,0
0.060625,4.890625,28,0.084951732619176,0.36083984375,0.00711044921875,0
0.1303125,9.5234375,20,0.20484249856596998,2.0980224609375,0.04184755859375,0
0.24765625,18.1953125,27,0.36096286436852,6.5147094726562,0.13024025878906,0
0.17875,14.0390625,26,0.2565880011687,3.2918701171875,0.06582333984375,0
0.2025,14.53125,25,0.29512229324256,4.3548583984375,0.08709365234375,0
0.19,13.78125,27,0.29721608695316,4.4168701171875,0.0883349609375,0
0.1109375,6.640625,20,0.15858412840272,1.2574462890625,0.02509267578125,0
0.17109375,11.3671875,22,0.23851806879275,2.8445434570312,0.05682229003906299,0
0.14671875,10.0703125,27,0.24825317454541002,3.0814819335938,0.06159621582031201,0
0.11671875,7.5703125,23,0.17120964967146,1.4656372070312,0.029238891601562997,0
0.07296875,4.0546875,21,0.097846689312286,0.47869873046875,0.0095200439453125,0
0.133125,9.1875,25,0.19651504792891,1.930908203125,0.03852431640625,0
0.1678125,10.8515625,24,0.25718674058211,3.3072509765625,0.064619140625,0
0.10515625,7.890625,27,0.16795603149523,1.4104614257812,0.027544555664062997,0
0.08015625,5.8515625,21,0.09973720351817099,0.49737548828125,0.0099474853515625,0
0.09140625,6.34375,26,0.12118696009421,0.73431396484375,0.014617700195312,0
0.10796875,7.75,24,0.147186338902,1.0831909179688,0.021560668945312,0
0.08078125,6.1171875,26,0.11104198424750998,0.61651611328125,0.012256469726563,0
0.06734375,4.4375,21,0.08481511372170099,0.35968017578125,0.0071027587890625,0
0.19,14.234375,22,0.26236045397983,3.441650390625,0.0687330078125,0
0.3296875,24.921875,28,0.42573179185228005,9.0623779296875,0.1812466796875,0
0.1984375,15.2734375,27,0.27423099153588,3.7601318359375,0.0752001953125,0
0.0709375,4.7890625,21,0.089158391360544,0.3974609375,0.00787265625,0
0.104375,8.125,26,0.15022769177151998,1.12841796875,0.02228359375,0
0.079375,6.1796875,23,0.1154348097954,0.666259765625,0.0131841796875,0
0.090625,6.5390625,26,0.12090963826346,0.73095703125,0.01451279296875,0
0.05046875,3.96875,20,0.073595242819254,0.27081298828125,0.0052715087890625,0
0.1078125,8.6484375,22,0.19141741038892002,1.83203125,0.03653427734375,0
0.22484375,18.546875,28,0.35579912531951,6.3296508789062,0.12568361816406,0
0.04765625,3.5625,24,0.065392071743255,0.21380615234375,0.0041729736328125,0
0.0571875,4.0390625,23,0.071568640566242,0.256103515625,0.0049330078125,0
0.12484375,8.578125,26,0.17870997694414,1.5968627929688,0.031903833007813,0
0.1628125,11.6875,27,0.23347744805441,2.7255859375,0.05440537109375,0
0.14546875,10.7578125,24,0.21542959896304,2.3204956054687997,0.046406958007812006,0
0.0609375,4.78125,25,0.082517162040693,0.3404541015625,0.00670908203125,0
0.1665625,12.859375,28,0.22804472046344001,2.6002197265625,0.05189150390625,0
0.16,12.578125,31,0.21150964073772,2.23681640625,0.044711328125,0
0.15375,11.5859375,25,0.22703614284129,2.5772705078125,0.0513109375,0
0.0334375,2.375,19,0.047930817656806,0.1148681640625,0.00219736328125,0
0.0309375,2.1328125,20,0.048387070522505994,0.1170654296875,0.00230224609375,0
0.04578125,3.7734375,25,0.076586412082203,0.29327392578125,0.0058566650390625,0
0.05046875,3.6640625,21,0.09366532634531802,0.43865966796875,0.0087280517578125,0
0.05703125,3.8515625,26,0.076154845852874,0.28997802734375,0.0057409423828125,0
0.150625,12.0546875,29,0.21014318035568,2.2080078125,0.04412109375,0
0.15125,9.6171875,22,0.19812968251564,1.9627685546875,0.0391216796875,0
0.160625,11.2421875,24,0.25293202520638003,3.19873046875,0.06392294921875,0
0.13296875,9.515625,22,0.20439208166383,2.0888061523438,0.041582739257812994,0
0.0540625,3.90625,22,0.081009258730098,0.328125,0.00650625,0
0.066875,5.140625,29,0.09398408276139099,0.441650390625,0.00863525390625,0
0.05875,4.2890625,22,0.083429306713828,0.3480224609375,0.00660888671875,0
0.1059375,7.8125,26,0.15011388905594,1.126708984375,0.0225150390625,0
0.1034375,8.53125,28,0.1386581199164,0.9613037109375,0.0191064453125,0
0.10703125,6.765625,21,0.15240984143298003,1.1614379882812,0.022999047851562003,0
0.08484375,6.59375,26,0.1260744835033,0.79473876953125,0.015826196289063,0
0.07296875,5.1640625,21,0.09923412774532302,0.49237060546875,0.0097839111328125,0
0.1825,14.5234375,25,0.25711078746573,3.3052978515625,0.06610244140625,0
0.219375,16.015625,30,0.29656645150159994,4.3975830078125,0.08794375,0
0.20578125,15.3125,26,0.30248603725523,4.5748901367188,0.091467895507812,0
0.14671875,9.5,25,0.19711357072921998,1.9426879882812,0.038762915039062006,0
0.04203125,2.7265625,16,0.058159851782609004,0.16912841796875,0.0032975830078125,0
0.134375,9.6171875,26,0.17460893805873998,1.5244140625,0.030159765625,0
0.15390625,10.1015625,25,0.22086864644937002,2.4391479492187997,0.048376684570312994,0
0.0934375,5.515625,26,0.12594370332117,0.7930908203125,0.01557705078125,0
0.1421875,10.3046875,25,0.24216733787043,2.9322509765625,0.058562890625,0
0.1759375,13.578125,22,0.29144290151546004,4.2469482421875,0.08384169921875,0
0.1346875,10.6640625,28,0.21290173422848999,2.266357421875,0.0453255859375,0
0.1084375,7.8671875,25,0.14500976529617002,1.0513916015625,0.02098876953125,0
0.0775,5.1953125,20,0.10077822185372999,0.5078125,0.010124609375,0
0.05125,3.6484375,22,0.066987347219456,0.224365234375,0.0044623046875,0
0.07953125,6.5625,33,0.09870375697320201,0.48712158203125,0.0097052978515625,0
0.1040625,8.5234375,26,0.14196411023125,1.0076904296875,0.0200341796875,0
0.2359375,18.8359375,27,0.31938509034941,5.100341796875,0.1019876953125,0
0.32203125,25.0859375,25,0.40252650582368,8.1013793945312,0.16152834472656,0
0.2446875,19.3046875,31,0.307491107595,4.7275390625,0.09455068359375,0
0.0821875,6.21875,27,0.11453242240191,0.6558837890625,0.013089453125,0
0.07640625,5.3046875,25,0.10727333480122,0.57537841796875,0.011433715820313,0
0.04890625,3.6328125,22,0.066245209142813,0.21942138671875,0.0042915283203125,0
0.07125,5.7265625,27,0.09138955509931099,0.4176025390625,0.008245703125,0
0.07796875,6.5390625,22,0.11275470299227001,0.63568115234375,0.012583520507812,0
0.159375,13.2578125,24,0.23365514452393,2.729736328125,0.05444619140625,0
0.259375,20.546875,28,0.34770101537635995,6.0447998046875,0.12070693359375,0
0.2075,15.8125,25,0.28254476276999,3.9915771484375,0.0796978515625,0
0.046875,3.703125,26,0.061812626390164,0.1910400390625,0.003777734375,0
0.0746875,5.3671875,24,0.10503673092661,0.5516357421875,0.01090615234375,0
0.0403125,3.34375,24,0.057431174842152995,0.1649169921875,0.0031787109375,0
0.05984375,4.6328125,23,0.083070059381374,0.34503173828125,0.0067072509765625,0
0.03390625,2.390625,15,0.050955230809751006,0.12982177734375,0.0024995361328125,0
0.06203125,4.421875,19,0.10476326549356,0.54876708984375,0.010930200195312,0
0.07375,5.125,23,0.10622701957365,0.564208984375,0.0112076171875,0
0.1234375,8.3125,25,0.16971656058706,1.440185546875,0.02850830078125,0
0.14046875,10.3828125,23,0.22183923567389,2.4606323242187997,0.049149145507812006,0
0.12875,9.21875,22,0.18286591100107,1.6719970703125,0.03313369140625,0
0.10109375,8.453125,27,0.16479375722967998,1.3578491210938,0.026963598632812003,0
0.0940625,8.0234375,28,0.14479916047754002,1.04833984375,0.02093515625,0
0.060625,4.625,24,0.08398346656485402,0.3526611328125,0.00701416015625,0
0.075625,6.09375,26,0.10641072402488001,0.566162109375,0.01121689453125,0
0.15984375,14.421875,29,0.26064495202406,3.3967895507812,0.06761291503906201,0
0.16109375,14.6796875,35,0.25676634335154996,3.2964477539062,0.06563889160156201,0
0.26546875,23.890625,36,0.38512534739111,7.4160766601562,0.14811037597656002,0
0.3275,27.140625,30,0.44786548883984,10.029174804688,0.2005318359375,0
0.25140625,22.0625,29,0.35089346061608,6.1563110351562,0.12309963378906,0
0.10984375,8.8671875,26,0.15625390620117002,1.2207641601562,0.024413305664062003,0
0.058125,4.40625,25,0.08457730376702702,0.357666015625,0.0069283203125,0
0.1084375,9.9375,31,0.1710919663149,1.463623046875,0.02909189453125,0
0.11125,9.234375,24,0.20897232733965,2.1834716796875,0.0436412109375,0
0.17953125,15.796875,31,0.27834655852125,3.8738403320312,0.077397485351562,0
0.26578125,22.921875,30,0.39653497983706,7.8619995117188,0.15701027832031,0
0.3659375,32.6796875,35,0.49023670940679,12.0166015625,0.24028037109375,0
0.27359375,22.078125,27,0.37439241142734003,7.0084838867188,0.14016418457031,0
0.0728125,5.3515625,23,0.09992673097074699,0.499267578125,0.00986572265625,0
0.1315625,9.90625,27,0.18873292555222002,1.781005859375,0.03509970703125,0
0.1884375,15.5625,30,0.26429815668105,3.49267578125,0.069697265625,0
0.19078125,14.078125,23,0.26823852127701,3.5975952148438,0.07174973144531199,0
0.0709375,4.1796875,23,0.10261474141784,0.5264892578125,0.01052626953125,0
0.095625,7.8515625,24,0.19504982336252,1.9022216796875,0.0380365234375,0
0.15765625,14.3515625,29,0.30996038368334,4.8037719726562,0.096075415039063,0
0.11921875,7.9296875,23,0.20915041593163003,2.1871948242188,0.04367004394531299,0
0.08625,6.453125,25,0.12149379485183999,0.738037109375,0.0145166015625,0
0.16125,12.8828125,29,0.25643571776129,3.2879638671875,0.06568271484375,0
0.09203125,7.4296875,20,0.17401719001833,1.5140991210938,0.030218481445312997,0
0.04140625,3.1171875,25,0.054765569276005996,0.14996337890625,0.0029453369140625,0
0.0753125,6.15625,25,0.11114637027362,0.61767578125,0.01233701171875,0
0.04828125,3.1328125,20,0.08130256712967301,0.33050537109375,0.0065649658203125,0
0.05328125,4.125,25,0.074975581962563,0.28106689453125,0.0053418212890625,0
0.03015625,2.1171875,20,0.042028055175977005,0.08831787109375,0.0016216064453125,0
0.03640625,2.9375,28,0.050715101147242,0.12860107421875,0.0024927001953125,0
0.05578125,4.4140625,24,0.077316125117113,0.29888916015625,0.0058254150390625,0
0.14921875,11.7109375,28,0.24142268350214,2.9142456054688,0.058175317382812994,0
0.13625,10.890625,25,0.22788943316881,2.5966796875,0.05181396484375,0
0.10203125,7.25,28,0.17656595682457,1.5587768554688,0.031170043945312,0
0.05890625,3.734375,20,0.08829853260035,0.38983154296875,0.0076803955078125,0
0.06453125,5.15625,23,0.097734343774975,0.47760009765625,0.0095285400390625,0
0.03265625,2.2890625,19,0.043986525813309994,0.09674072265625,0.0018896728515625,0
0.0428125,3.3359375,26,0.057600964347396,0.1658935546875,0.00327880859375,0
0.03484375,2.8125,25,0.046940059018123995,0.11016845703125,0.0021734619140625,0
0.06453125,5.0859375,24,0.10016465935835,0.50164794921875,0.0099878173828125,0
0.1546875,12.6953125,29,0.24619665507222,3.0306396484375,0.06061240234375,0
0.110625,7.7109375,24,0.18435513664189,1.6993408203125,0.03397890625,0
0.06796875,4.375,25,0.08676448681272199,0.37640380859375,0.0072589111328125,0
0.05515625,4.3125,22,0.084671066209922,0.35845947265625,0.0071685791015625,0
0.03125,2.0,20,0.038495890608609,0.0740966796875,0.00144287109375,0
0.03953125,3.0,25,0.052302922510363004,0.13677978515625,0.0026984619140625,0
0.04796875,3.890625,22,0.085731286678931,0.36749267578125,0.0073088134765625,0
0.1340625,10.78125,16,0.23467168721695003,2.7535400390625,0.055019140625,0
0.171875,12.46875,28,0.27401724255738,3.7542724609375,0.07499755859375,0
0.14078125,10.4296875,21,0.23142676943123003,2.6779174804687997,0.053473364257812996,0
0.06984375,4.9765625,25,0.089233662282655,0.39813232421875,0.0077944580078125,0
0.04171875,2.8125,19,0.052605455842289005,0.13836669921875,0.0026442626953125,0
0.1503125,11.7890625,18,0.26045989224591004,3.3919677734375,0.0678345703125,0
0.1265625,9.671875,25,0.23889393567020004,2.853515625,0.05706875,0
0.03640625,2.46875,15,0.050811289192215996,0.12908935546875,0.0024053955078125,0
0.0234375,1.7421875,18,0.03125,0.048828125,0.0008203125,0
0.03203125,2.4765625,24,0.043958765301985,0.09661865234375,0.0018688720703125,0
0.0509375,3.9609375,18,0.08773684463353999,0.3848876953125,0.0076546875,0
0.023125,1.765625,18,0.030378472023787004,0.046142578125,0.0008755859375,0
0.03875,3.375,26,0.070986354322503,0.251953125,0.005029296875,0
0.04640625,2.6796875,25,0.07687277689875,0.29547119140625,0.0055031494140625,0
0.038125,2.8203125,26,0.058379817788342,0.17041015625,0.0032359375,0
0.04265625,3.0546875,23,0.057036600776386996,0.16265869140625,0.0031681884765625,0
0.065625,4.8828125,24,0.10237654531801,0.5240478515625,0.01048095703125,0
0.02140625,1.3515625,16,0.030518789038476005,0.04656982421875,0.0008628173828125,0
0.0315625,2.4140625,14,0.068945035852844,0.2376708984375,0.0047181640625,0
0.0225,1.640625,16,0.030217311884084,0.045654296875,0.00087783203125,0
0.0396875,3.5703125,22,0.073586948995729,0.270751953125,0.00539306640625,0
0.0459375,4.0234375,24,0.072196969075925,0.2606201171875,0.00508583984375,0
0.054375,3.0390625,20,0.087052426732401,0.37890625,0.007249609375,0
0.03453125,2.5703125,20,0.04794354997676999,0.11492919921875,0.0022192626953125,0
0.07296875,5.484375,22,0.1042141818714,0.54302978515625,0.010823461914063,0
0.01796875,1.390625,22,0.024180918032097,0.02923583984375,0.0005260986328125,0
0.02078125,1.546875,19,0.027841452626884,0.03875732421875,0.0006719970703125,0
0.015625,0.953125,13,0.019640320453088,0.019287109375,0.00029189453125,0
0.01828125,1.3671875,14,0.029749113694781,0.04425048828125,0.0008056884765625,0
0.02546875,1.375,11,0.046600760287521,0.10858154296875,0.0021130126953125,0
0.02125,1.40625,18,0.030935921676910998,0.0478515625,0.000869140625,0
0.02578125,2.0234375,22,0.03460505404742201,0.05987548828125,0.0011125244140625,0
0.06359375,5.1484375,27,0.088533241020675,0.39190673828125,0.0076857666015625,0
0.02125,1.5234375,21,0.0265625,0.0352783203125,0.0005859375,0
0.0240625,1.765625,23,0.029605148939838,0.0438232421875,0.0007701171875,0
0.04203125,2.96875,24,0.061565275952642,0.18951416015625,0.0035791259765625,0
0.0284375,2.0,24,0.036409938117910004,0.0662841796875,0.0012646484375,0
0.10140625,8.8984375,30,0.17209148298398,1.4807739257812,0.029612524414062997,0
0.17109375,14.78125,29,0.26305512358986,3.4598999023438,0.069004614257812,0
0.04390625,2.7109375,20,0.11024763496612999,0.60772705078125,0.012109399414062,0
0.033125,2.453125,21,0.060575849921812995,0.1834716796875,0.0036529296875,0
0.05390625,4.140625,26,0.069868389110348,0.24407958984375,0.0047585205078125,0
0.08828125,7.171875,26,0.11993141757636,0.71917724609375,0.014093481445313,0
0.0765625,5.1328125,22,0.11729162041147999,0.6878662109375,0.0136634765625,0
0.0825,6.9453125,26,0.12024145629732001,0.722900390625,0.0143580078125,0
0.03546875,2.6015625,24,0.05025569386273599,0.12628173828125,0.0023732666015625,0
0.0628125,4.421875,26,0.097890344422982,0.4791259765625,0.00925400390625,0
0.10578125,7.9140625,23,0.16108533865042998,1.2974243164062,0.025879907226562002,0
0.085625,6.546875,25,0.14963334093293,1.1195068359375,0.0222095703125,0
0.078125,6.140625,32,0.10612354607367,0.5631103515625,0.01126181640625,0
0.0575,4.53125,24,0.089799581534381,0.4031982421875,0.0080560546875,0
0.03875,2.4453125,19,0.057388648975647,0.1646728515625,0.003211328125,0
0.0603125,4.546875,22,0.079641530858592,0.317138671875,0.0063236328125,0
0.06421875,4.859375,24,0.09130269240622099,0.41680908203125,0.0082990478515625,0
0.16921875,11.7734375,26,0.23702409143772,2.8090209960938,0.055786645507812996,0
0.28671875,19.7421875,26,0.37131818870832006,6.8938598632812,0.13773986816406,0
0.218125,16.9375,32,0.29330085343381,4.30126953125,0.08601357421875,0
0.08828125,7.046875,33,0.11640887161477,0.67755126953125,0.013538110351563,0
0.06796875,5.1171875,24,0.12062155921258001,0.72747802734375,0.014356176757813,0
0.060625,5.109375,22,0.12873331202529,0.82861328125,0.016525,0
0.05234375,3.875,18,0.07521940563694299,0.28289794921875,0.0056509033203125,0
0.0584375,4.78125,25,0.087038402982534,0.3787841796875,0.00756591796875,0
0.18546875,13.9375,25,0.25604746187841004,3.2780151367188,0.06539211425781201,0
0.25703125,18.484375,27,0.35306104232749,6.2326049804688,0.12393820800781001,0
0.02609375,1.7890625,20,0.039513026926256,0.07806396484375,0.0015378173828125,0
0.0265625,1.96875,25,0.034053897996412,0.0579833984375,0.00109365234375,0
0.13390625,11.4921875,27,0.18670730874989003,1.7429809570312,0.034729516601562996,0
0.10484375,7.5078125,27,0.14571935650206,1.0617065429688,0.021117895507812998,0
0.07328125,5.0234375,21,0.11276552865626,0.63580322265625,0.012531274414062,0
0.08265625,6.4765625,26,0.11049095869402999,0.61041259765625,0.012206274414062,0
0.045625,3.140625,20,0.05953924651018,0.17724609375,0.00351328125,0
0.05625,3.78125,21,0.07854574204723,0.3084716796875,0.00614443359375,0
0.06953125,5.0859375,24,0.11528137283133,0.66448974609375,0.013289184570312,0
0.174375,13.296875,27,0.28630014571686996,4.098388671875,0.0819642578125,0
0.17671875,12.65625,22,0.27860956734403003,3.8811645507812,0.07444162597656301,0
0.15703125,10.5078125,23,0.22656519394949998,2.5665893554687997,0.05120871582031201,0
0.09953125,7.2265625,23,0.13323920424138,0.88763427734375,0.017622583007813,0
0.06625,4.5625,23,0.085553117637524,0.365966796875,0.00702392578125,0
0.06296875,4.3828125,22,0.077772642904655,0.30242919921875,0.0059577392578125,0
0.116875,9.4765625,26,0.1636825958601,1.339599609375,0.02677001953125,0
0.1928125,15.96875,33,0.27913265495549,3.895751953125,0.0777083984375,0
0.12453125,10.109375,29,0.16919429359282,1.4313354492188,0.028535864257812998,0
0.35015625,27.1015625,26,0.4498277122445,10.117248535156,0.19894826660156,0
0.25453125,19.609375,25,0.33897428287868997,5.7451782226562,0.11480666503906001,0
0.06796875,4.9296875,27,0.089806378096853,0.40325927734375,0.0080065673828125,0
0.0728125,5.1796875,21,0.091802692634802,0.42138671875,0.008402734375,0
0.08515625,6.2890625,25,0.11414273718955999,0.65142822265625,0.012987524414062,0
0.15625,13.53125,26,0.21190173135206,2.2451171875,0.04477578125,0
0.08203125,6.4375,25,0.12851978051791998,0.82586669921875,0.016237817382812,0
0.1784375,14.453125,27,0.28600152971619,4.08984375,0.081040625,0
0.2525,20.8359375,24,0.38632002803699,7.462158203125,0.14924228515625,0
0.16828125,14.1953125,26,0.27470909684724,3.7732543945312,0.07545959472656301,0
0.0515625,3.6953125,29,0.06354593564894599,0.201904296875,0.00390439453125,0
0.09734375,7.4765625,26,0.12103577241099,0.73248291015625,0.014429321289062,0
0.31140625,26.0078125,34,0.39983059156738,7.9932250976562,0.15929299316406,0
0.10140625,7.0,23,0.13915463941915,0.96820068359375,0.019326879882812,0
0.0696875,5.1484375,21,0.11788335071163,0.69482421875,0.01368076171875,0
0.07265625,5.84375,20,0.13377865493278002,0.89483642578125,0.017891235351562,0
0.205625,12.1484375,14,0.30960376642977006,4.792724609375,0.09583251953125,0
0.189375,12.296875,17,0.2951016112079,4.354248046875,0.0869720703125,0
0.09828125,7.5390625,26,0.17085992869709,1.4596557617188,0.028606567382812,0
0.05234375,3.3515625,18,0.07068477835167199,0.24981689453125,0.0049377197265625,0
0.0853125,6.1328125,19,0.17499302441455,1.5311279296875,0.02996591796875,0
0.11859375,7.015625,22,0.20250807757808997,2.0504760742188,0.040924536132812994,0
0.1078125,6.6640625,17,0.19586172777306,1.9180908203125,0.03827392578125,0
0.10578125,8.2265625,20,0.16498623877274,1.3610229492188,0.027211645507812,0
0.1415625,10.96875,23,0.21624119382358997,2.3380126953125,0.0466265625,0
0.15609375,12.3984375,20,0.25614755955429996,3.2805786132812,0.06539123535156201,0
0.17859375,14.21875,26,0.28184182523736,3.9717407226562,0.07747951660156199,0
0.0528125,4.1953125,23,0.07540580320008501,0.2843017578125,0.00556640625,0
0.12640625,8.5390625,19,0.19242553856135,1.8513793945312,0.036959008789062005,0
0.08984375,7.7734375,20,0.1882893540787,1.7726440429688,0.035183715820312995,0
0.11328125,8.9140625,20,0.23369432408464,2.7306518554688,0.05448996582031201,0
0.09671875,6.9375,22,0.14807933763485,1.0963745117188,0.021927465820312003,0
0.19125,15.4453125,31,0.25409728390422004,3.228271484375,0.0639404296875,0
0.18765625,15.390625,27,0.26375953403977,3.4784545898438,0.06867844238281201,0
0.22953125,18.8828125,30,0.32512580197421004,5.2853393554688,0.10421730957031,0
0.045625,4.1484375,26,0.06921010809484401,0.239501953125,0.00471884765625,0
0.044375,2.9453125,22,0.086461470826606,0.373779296875,0.00746767578125,0
0.04890625,3.03125,21,0.1459704526501,1.0653686523438,0.021068090820312003,0
0.0540625,3.515625,22,0.14155077214113002,1.0018310546875,0.01993662109375,0
0.05828125,4.1796875,23,0.08231720990701201,0.33880615234375,0.0066387939453125,0
0.1225,9.7109375,26,0.17324031583684998,1.5006103515625,0.02978720703125,0
0.10375,7.8046875,24,0.13601829495513,0.925048828125,0.0179662109375,0
0.12453125,9.109375,23,0.24346688285448,2.9638061523438,0.05910793457031299,0
0.06578125,6.078125,29,0.10114698656226,0.51153564453125,0.010127563476563,0
0.05609375,3.8828125,26,0.07132089400642,0.25433349609375,0.0050532470703125,0
0.0409375,2.7734375,20,0.054194203737577,0.1468505859375,0.00288974609375,0
0.06609375,4.765625,19,0.09114211301931201,0.41534423828125,0.0082330322265625,0
0.06625,4.171875,23,0.099645367271891,0.4964599609375,0.00962294921875,0
0.1909375,14.2578125,25,0.27308012360157,3.7286376953125,0.07450673828125,0
0.24328125,18.7890625,28,0.35046530175522,6.1412963867188,0.12263254394531001,0
0.20328125,16.3828125,30,0.29188026962588,4.2597045898438,0.08513059082031199,0
0.13328125,8.9765625,24,0.17434657586435,1.5198364257812,0.030211938476562002,0
0.09578125,6.8203125,18,0.1538050904859,1.1828002929688,0.023376489257812997,0
0.09671875,6.7890625,20,0.13672991025877998,0.93475341796875,0.018645629882813,0
0.1484375,10.4296875,21,0.18402376502438,1.6932373046875,0.0338216796875,0
0.1009375,5.953125,22,0.14025994282938,0.983642578125,0.0195166015625,0
0.206875,17.171875,30,0.30617425721515,4.6871337890625,0.092312890625,0
0.29265625,22.078125,25,0.41450006361203,8.5905151367188,0.17053000488281,0
0.046875,2.9609375,22,0.06004962140804901,0.1802978515625,0.003554296875,0
0.24453125,18.609375,25,0.33562303595794,5.6321411132812,0.11251271972656,0
0.1990625,16.7109375,27,0.27349999285878,3.7401123046875,0.07411318359375,0
0.20625,16.9375,25,0.2949319638175,4.3492431640625,0.086492578125,0
0.22328125,16.8203125,23,0.29092936011707,4.2319946289062,0.084530297851563,0
0.08109375,5.375,24,0.11904260824648,0.70855712890625,0.014158227539063,0
0.10171875,8.390625,28,0.1968408948634,1.9373168945312,0.03700588378906201,0
0.131875,9.5703125,24,0.25044394176891,3.1361083984375,0.0627173828125,0
0.114375,8.3125,29,0.2079416891673,2.1619873046875,0.04323349609375,0
0.14484375,10.984375,21,0.21091724439783,2.2243041992187997,0.04445617675781299,0
0.29921875,21.6796875,24,0.37621061099884995,7.0767211914062,0.14146057128906,0
0.295625,22.15625,25,0.38511742324582005,7.415771484375,0.14767470703125,0
0.18625,15.375,29,0.28561713610619,4.078857421875,0.0809205078125,0
0.0575,4.15625,20,0.07970281715535499,0.317626953125,0.0063275390625,0
0.133125,9.953125,26,0.18330595794668,1.6800537109375,0.03322568359375,0
0.04078125,3.078125,28,0.05197514805775,0.13507080078125,0.0026275634765625,0
0.05015625,3.8125,24,0.06859891068286,0.23529052734375,0.0045684814453125,0
0.14921875,12.328125,20,0.22571771381113,2.5474243164062003,0.050709204101562995,0
0.02578125,1.75,17,0.039636409043642996,0.07855224609375,0.0014186767578125,0
0.02609375,1.84375,10,0.067667255167289,0.22894287109375,0.0042331298828125,0
0.02859375,2.2109375,18,0.057399283396005994,0.16473388671875,0.0032096923828125,0
0.0278125,2.1015625,17,0.045285552331842005,0.1025390625,0.00197958984375,0
0.06796875,4.9296875,20,0.09759685693901698,0.47625732421875,0.0093950439453125,0
0.08234375,6.0703125,21,0.12739406597984,0.81146240234375,0.015871801757813,0
0.0809375,6.390625,25,0.13536156731602,0.9161376953125,0.01822275390625,0
0.06703125,5.3828125,22,0.095165101189328,0.45281982421875,0.0088452392578125,0
0.04375,3.3046875,19,0.067005567632474,0.2244873046875,0.0043091796875,0
0.125,9.3046875,20,0.20576410568293999,2.116943359375,0.04184658203125,0
0.2040625,16.859375,28,0.33311312713364,5.5482177734375,0.1108822265625,0
0.125,10.9609375,25,0.20034759832913,2.0069580078125,0.03976376953125,0
0.09453125,7.1484375,22,0.14667123498449,1.0756225585938,0.021155004882812002,0
0.07796875,5.8203125,24,0.11262471385924,0.63421630859375,0.012473168945311999,0
0.07875,5.6796875,26,0.094888915316806,0.4501953125,0.00887734375,0
0.05515625,4.125,28,0.070874490187761,0.25115966796875,0.0048550048828125,0
0.04546875,3.6796875,22,0.066612730460288,0.22186279296875,0.0043141845703125,0
0.13078125,10.0,29,0.20353024479638,2.0712280273438,0.041134497070312005,0
0.223125,18.96875,29,0.34565523149882005,5.973876953125,0.1194759765625,0
0.15640625,13.6015625,26,0.25278478293674,3.1950073242188,0.063790551757813,0
0.07328125,5.0390625,20,0.12663481730206,0.80181884765625,0.015967797851562,0
0.0940625,7.1171875,24,0.11877055743112,0.705322265625,0.0140298828125,0
0.10125,8.171875,26,0.18826666177924,1.772216796875,0.03535048828125,0
0.055625,4.078125,25,0.082591095540016,0.341064453125,0.00668759765625,0
0.030625,2.1640625,13,0.04592793267718499,0.10546875,0.001953125,0
0.08171875,6.4765625,16,0.12345233296955001,0.76202392578125,0.014991430664062,0
0.07359375,6.0,26,0.13609455725937,0.92608642578125,0.018458227539063,0
0.0840625,6.453125,19,0.13871973205892998,0.962158203125,0.0190365234375,0
0.02984375,1.8125,13,0.037872498886065004,0.07171630859375,0.0013848876953125,0
0.06265625,4.484375,18,0.08967034896985199,0.40203857421875,0.0080352783203125,0
0.0959375,7.7578125,31,0.13812005081630999,0.953857421875,0.01906533203125,0
0.06765625,5.6015625,26,0.092656381745269,0.42926025390625,0.0085312744140625,0
0.06859375,5.2421875,25,0.10614079866208,0.56329345703125,0.011257055664062,0
0.086875,6.484375,20,0.13778379803155,0.94921875,0.01895615234375,0
0.07125,5.859375,30,0.10629594594809,0.56494140625,0.01121669921875,0
0.078125,7.0,31,0.12522440793931,0.7840576171875,0.01556826171875,0
0.19640625,16.953125,33,0.28935162905084005,4.1862182617188,0.083650512695313,0
0.18453125,13.4140625,23,0.26213935419091,3.4358520507812,0.068714086914062,0
0.2025,16.6640625,37,0.26056297973090997,3.3946533203125,0.06778017578125,0
0.06390625,5.21875,26,0.09003715595866499,0.40533447265625,0.0080767822265625,0
0.04546875,3.3046875,27,0.059096798903367005,0.17462158203125,0.0033761962890625,0
0.050625,3.3359375,23,0.08615030470056402,0.37109375,0.0072953125,0
0.04265625,3.1640625,21,0.060485099533893,0.18292236328125,0.0035422119140625,0
0.07765625,6.46875,28,0.12657696676578,0.80108642578125,0.015947875976563,0
0.183125,16.0390625,32,0.28559576573586,4.0782470703125,0.0814453125,0
0.215,16.2109375,23,0.29581636908520004,4.3753662109375,0.08738076171875,0
0.18671875,15.3828125,34,0.25293926441811,3.1989135742188,0.06373898925781299,0
0.036875,2.5390625,17,0.050048804306397,0.125244140625,0.00237119140625,0
0.066875,5.0703125,26,0.11826587168854,0.6993408203125,0.01392578125,0
0.045625,3.375,23,0.07486967844194299,0.2802734375,0.00552890625,0
0.07578125,5.5546875,20,0.11003705874328999,0.60540771484375,0.012074731445313,0
0.031875,1.8828125,19,0.045581100455671,0.1038818359375,0.0020345703125,0
0.04375,3.3828125,18,0.07888690975852701,0.3111572265625,0.006129296875,0
0.08734375,6.734375,18,0.16226319885644,1.3164672851562,0.026192016601562,0
0.06828125,5.359375,25,0.11546124383586001,0.66656494140625,0.013246313476563,0
0.06625,5.1875,28,0.09377603805077302,0.439697265625,0.0087279296875,0
0.07015625,5.2265625,26,0.13669419422336002,0.93426513671875,0.018685278320312,0
0.0709375,4.5625,17,0.16607397871506,1.3790283203125,0.02756650390625,0
0.0796875,5.1953125,22,0.10197033499381,0.5198974609375,0.0103900390625,0
0.1465625,11.578125,26,0.20932252140835003,2.1907958984375,0.0436962890625,0
0.0459375,3.2734375,21,0.066511864543102,0.22119140625,0.004347265625,0
0.08328125,6.8984375,28,0.11453775135025998,0.65594482421875,0.013110083007813,0
0.03734375,2.8828125,21,0.048450099167855,0.11737060546875,0.0023239501953125,0
0.04625,3.34375,22,0.060797113932324,0.184814453125,0.00366103515625,0
0.04578125,3.3046875,22,0.060626208106519,0.18377685546875,0.0036384033203125,0
0.11515625,7.5859375,21,0.1572118830492,1.2357788085938,0.024674536132812997,0
0.18296875,14.5859375,24,0.27466021266626,3.7719116210938,0.075068872070313,0
0.1165625,8.7109375,27,0.15901460477343,1.2642822265625,0.025166015625,0
0.03953125,2.8125,17,0.06044472229339,0.18267822265625,0.0035627197265625,0
0.04546875,3.3046875,23,0.070095150175494,0.24566650390625,0.0047369384765625,0
0.03234375,2.390625,20,0.044702248440375,0.09991455078125,0.0019074462890625,0
0.23140625,19.421875,27,0.31135924601355,4.8472290039062,0.09657521972656301,0
0.06328125,4.921875,28,0.086355517430127,0.37286376953125,0.0074078369140625,0
0.2153125,15.5078125,27,0.2865345542535,4.1051025390625,0.08177353515625,0
0.21359375,17.6484375,30,0.27889421367586,3.8890991210938,0.077713403320312,0
0.1271875,10.5,28,0.17498604855101998,1.531005859375,0.03061533203125,0
0.0734375,6.015625,26,0.11798685705407999,0.696044921875,0.0138080078125,0
0.05328125,3.4296875,21,0.066941774490037,0.22406005859375,0.0044477783203125,0
0.0740625,5.5625,24,0.12403927679367999,0.769287109375,0.01533408203125,0
0.096875,7.703125,29,0.13819073661972,0.954833984375,0.01886220703125,0
0.096875,6.9765625,22,0.13828787060422,0.9561767578125,0.01899697265625,0
0.2371875,18.5078125,28,0.32383731327435,5.2435302734375,0.10327060546875,0
0.25234375,20.71875,31,0.33105647353869,5.4799194335938,0.10947531738281001,0
0.20640625,16.4453125,27,0.29784176469540996,4.4354858398438,0.088579614257812,0
0.08234375,6.703125,27,0.12323460381778,0.75933837890625,0.015137329101562,0
0.08953125,6.4609375,24,0.1335960343372,0.89239501953125,0.017806860351562,0
0.06078125,4.296875,27,0.092498152430873,0.42779541015625,0.0084972900390625,0
0.11390625,8.2265625,21,0.1492616921195,1.1139526367188,0.022118872070313,0
0.083125,6.2578125,22,0.14487501348145002,1.0494384765625,0.02081650390625,0
0.101875,8.3203125,28,0.12694771623094,0.8057861328125,0.01601572265625,0
0.1534375,11.828125,24,0.24871741306651998,3.093017578125,0.06167978515625,0
0.09234375,6.0234375,21,0.13264235424865,0.87969970703125,0.017548852539062,0
0.05125,3.3359375,17,0.07832786162183901,0.3067626953125,0.0060640625,0
0.13625,10.3125,23,0.23601509485624,2.78515625,0.055678125,0
0.15859375,12.34375,29,0.27506879466212997,3.7831420898438,0.075553247070312,0
0.12125,8.25,23,0.20115632524854998,2.023193359375,0.04044189453125,0
0.09703125,6.1015625,21,0.13219063973813,0.87371826171875,0.017377465820313,0
0.0953125,7.0625,25,0.11731243340435,0.6881103515625,0.013564453125,0
0.1209375,8.8203125,23,0.18387777232784,1.6905517578125,0.03358603515625,0
0.095,6.34375,24,0.13481939597569,0.9088134765625,0.017960546875,0
0.0715625,4.3125,21,0.10140612962242,0.51416015625,0.010269140625,0
0.0515625,3.7265625,20,0.06957951274441299,0.2420654296875,0.0047076171875,0
0.195,14.5390625,26,0.29712982484513,4.414306640625,0.08826416015625,0
0.18484375,13.25,24,0.28123914909624,3.9547729492188,0.079095239257813,0
0.085,5.8671875,21,0.11954912039617999,0.714599609375,0.01417236328125,0
0.10421875,6.734375,24,0.13274354827778,0.88104248046875,0.017418676757813,0
0.085,5.8515625,22,0.12378313950210999,0.76611328125,0.01518857421875,0
0.1025,7.9765625,26,0.1611194359978,1.2979736328125,0.02570546875,0
0.0675,4.359375,21,0.09217425752345401,0.4248046875,0.008464453125,0
0.15375,11.4375,25,0.22308757564295,2.4884033203125,0.04976015625,0
0.2546875,21.328125,29,0.33532283884340003,5.6220703125,0.11230771484375,0
0.1684375,13.7109375,25,0.26075966994294,3.3997802734375,0.0679791015625,0
0.0628125,4.40625,22,0.082768266488431,0.342529296875,0.0066255859375,0
0.1084375,8.4765625,29,0.13764197215966,0.947265625,0.0189390625,0
0.076875,5.421875,24,0.11672826684761999,0.6812744140625,0.013543359375,0
0.23203125,18.328125,28,0.34336804063296994,5.8950805664062,0.11787170410156,0
0.03078125,2.203125,18,0.040004272232788,0.08001708984375,0.0014555908203125,0
0.09234375,6.8984375,27,0.13497775424352,0.91094970703125,0.018102758789062,0
0.11859375,8.1796875,23,0.16950424612123002,1.4365844726562,0.028646704101562,0
0.06109375,4.1328125,24,0.08571704678402702,0.36737060546875,0.0073321533203125,0
0.165625,12.265625,28,0.24930077999527,3.1075439453125,0.06215078125,0
0.19828125,14.3203125,26,0.2956615826995,4.3707885742188,0.08740695800781301,0
0.15484375,10.6953125,25,0.22895557275785,2.6210327148437997,0.052413598632812995,0
0.1009375,6.3984375,21,0.13512689348812,0.9129638671875,0.0182427734375,0
0.0984375,7.2109375,26,0.11983468430508999,0.718017578125,0.01408603515625,0
0.11609375,7.515625,22,0.17701476920196998,1.5667114257812,0.031189477539063,0
0.09671875,6.28125,25,0.13706874843258002,0.93939208984375,0.018657739257813,0
0.0725,4.2734375,21,0.10164659979557,0.5166015625,0.01031005859375,0
0.19875,14.8984375,27,0.2977167343403,4.4317626953125,0.08862900390625,0
0.2553125,20.7265625,30,0.36787833947686,6.7667236328125,0.13532822265625,0
0.183125,13.1640625,24,0.28069824350403005,3.9395751953125,0.07878173828125,0
0.0909375,6.046875,25,0.12500976524356,0.7813720703125,0.01560546875,0
0.08828125,5.9765625,20,0.12205015458563,0.74481201171875,0.014562036132812,0
0.08390625,5.8671875,23,0.12319497535665,0.75885009765625,0.014965844726563001,0
0.1021875,7.9140625,25,0.16104365431072,1.2967529296875,0.0255716796875,0
0.06859375,4.3203125,20,0.093430444967767,0.43646240234375,0.0086130126953125,0
0.16484375,11.4609375,25,0.23164293053236998,2.6829223632812003,0.053447290039062005,0
0.27296875,23.0859375,31,0.35747288741158,6.3893432617188,0.12767727050781,0
0.17578125,13.9453125,26,0.26537902213743997,3.5213012695312,0.070295922851563,0
0.06078125,4.1640625,22,0.07733191197284,0.29901123046875,0.0057212158203125,0
0.126875,9.6171875,28,0.1743850803538,1.5205078125,0.03024599609375,0
0.0659375,4.890625,28,0.10984274981764,0.603271484375,0.01191689453125,0
0.07203125,5.390625,25,0.13792990322307,0.95123291015625,0.018887329101562,0
0.0475,3.375,18,0.06760408641495,0.228515625,0.00446396484375,0
0.09296875,6.5625,23,0.13659592697304,0.93292236328125,0.018542211914062,0
0.1065625,7.21875,27,0.13474694163969,0.9078369140625,0.017664453125,0
0.18359375,15.21875,29,0.26483107454918003,3.5067749023438,0.070019262695313,0
0.1259375,9.078125,25,0.18555633199583998,1.7215576171875,0.0343490234375,0
0.08109375,5.453125,24,0.10409698189969,0.54180908203125,0.010827368164063001,0
0.225,17.546875,29,0.31883041265107004,5.0826416015625,0.10151181640625,0
0.1559375,12.140625,23,0.24108620573095998,2.9061279296875,0.05800966796875,0
0.0534375,4.28125,23,0.073769197713205,0.2720947265625,0.00531533203125,0
0.0578125,4.21875,17,0.077968593436717,0.303955078125,0.0058900390625,0
0.03390625,2.7578125,25,0.054002405183705,0.14581298828125,0.0028424072265625,0
0.04703125,3.828125,23,0.064319226446102,0.20684814453125,0.0040400634765625,0
0.033125,2.125,18,0.048889024522380996,0.1195068359375,0.0022705078125,0
0.0609375,4.4921875,17,0.10262663671046,0.526611328125,0.0103759765625,0
0.10765625,9.0234375,24,0.19437587921827,1.8890991210938,0.037766723632812006,0
0.05828125,4.34375,17,0.09800873884825301,0.48028564453125,0.0095605712890625,0
0.04265625,3.0234375,17,0.063382442240537,0.20086669921875,0.0038942626953125,0
0.0784375,6.296875,23,0.10524571324406,0.5538330078125,0.011015625,0
0.10421875,8.140625,27,0.12483876319828,0.77923583984375,0.015584106445313,0
0.03953125,3.421875,35,0.058117859104367,0.16888427734375,0.0033038330078125,0
0.01484375,1.03125,17,0.019546868754995,0.01910400390625,0.0003185791015625,0
0.02,1.5859375,20,0.031210913055372002,0.0487060546875,0.0009130859375,0
0.0225,1.75,17,0.036942470054803,0.0682373046875,0.0012583984375,0
0.02,1.4296875,19,0.028427195935407,0.0404052734375,0.00072021484375,0
0.04546875,3.140625,18,0.062117973068388004,0.19293212890625,0.0037138916015625,0
0.0953125,7.40625,27,0.12101055609946001,0.732177734375,0.01464345703125,0
0.06109375,4.4921875,32,0.09021323480717801,0.40692138671875,0.0080798095703125,0
0.05,3.875,26,0.06978972323164799,0.2435302734375,0.00474404296875,0
0.0278125,2.0546875,20,0.042042575147105,0.08837890625,0.0016796875,0
0.065625,4.765625,25,0.10045064475278,0.5045166015625,0.00996376953125,0
0.08125,5.9140625,21,0.12725504962967,0.8096923828125,0.0158984375,0
0.06140625,4.46875,26,0.0971078351145,0.47149658203125,0.0092697509765625,0
0.04015625,3.59375,24,0.060201890154089006,0.18121337890625,0.0035273681640625,0
0.1678125,13.4453125,25,0.27876506405484003,3.885498046875,0.0773345703125,0
0.12375,10.3828125,29,0.19494966297419,1.9002685546875,0.03790537109375,0
0.12234375,9.75,23,0.18117926960438002,1.6412963867188,0.032805395507813,0
0.04203125,2.9140625,20,0.05458696115488599,0.14898681640625,0.0029162353515625,0
0.11390625,9.3125,27,0.16047795433679998,1.2876586914062,0.025542016601562002,0
0.09875,7.5078125,21,0.16008573142616,1.2813720703125,0.025615625,0
0.123125,9.75,20,0.19486198040216,1.8985595703125,0.0379,0
0.02390625,1.6796875,19,0.032719361861519,0.05352783203125,0.0009967041015625,0
0.025,1.8515625,22,0.035664725657853995,0.0635986328125,0.001178125,0
0.0421875,3.421875,25,0.059886774677303,0.1793212890625,0.00353017578125,0
0.0478125,3.828125,26,0.06632807898997199,0.219970703125,0.0043677734375,0
0.03484375,2.2890625,17,0.04546042664367501,0.10333251953125,0.0020256103515625,0
0.09296875,7.46875,27,0.14094148414546,0.99322509765625,0.019843969726563,0
0.08125,5.7421875,19,0.14168868548247,1.0037841796875,0.0200748046875,0
0.10125,7.953125,23,0.16937096397405,1.434326171875,0.02860439453125,0
0.111875,9.71875,24,0.21929062658091,2.4044189453125,0.04792421875,0
0.023125,1.640625,17,0.031444705933591,0.0494384765625,0.00094150390625,0
0.0471875,3.71875,26,0.067946296578622,0.2308349609375,0.0046048828125,0
0.05140625,3.9375,27,0.07326275752812599,0.26837158203125,0.0053566650390625,0
0.03109375,2.1484375,18,0.039912624295139996,0.07965087890625,0.0015435791015625,0
0.11453125,8.9375,28,0.16181119036743,1.3091430664062,0.026014672851563,0
0.10328125,7.2578125,24,0.14567746506624,1.0610961914062,0.021167993164062003,0
0.10953125,8.765625,29,0.16076674800973,1.2922973632812,0.025749047851562002,0
0.02,1.3515625,17,0.024256522962906,0.0294189453125,0.00049453125,0
0.0275,2.1484375,25,0.042042575147105,0.08837890625,0.00172451171875,0
0.0321875,2.2421875,17,0.048538201771903,0.1177978515625,0.002351171875,0
0.04109375,2.78125,24,0.06324748327502801,0.20001220703125,0.0039703369140625,0
0.0403125,2.875,21,0.05421672366530501,0.14697265625,0.00284560546875,0
0.11828125,9.296875,28,0.16928806002086,1.4329223632812,0.028528344726562002,0
0.0325,2.6171875,24,0.048864049284725,0.119384765625,0.00231650390625,0
0.05828125,3.40625,19,0.079141820388307,0.31317138671875,0.0061784423828125,0
0.1528125,12.828125,22,0.2829290160535,4.00244140625,0.07999716796875,0
0.03921875,2.9296875,23,0.063536330035461,0.20184326171875,0.0039460205078125,0
0.06140625,4.84375,23,0.09999389629809899,0.49993896484375,0.0098464111328125,0
0.0875,7.2734375,27,0.14130046111921,0.998291015625,0.0197216796875,0
0.02484375,1.859375,21,0.033493673609728,0.05609130859375,0.0010532470703125,0
0.04375,3.2734375,25,0.065251915680691,0.212890625,0.00424375,0
0.0828125,5.9453125,28,0.11356913849611999,0.6448974609375,0.01256943359375,0
0.0609375,4.5859375,26,0.082087034603523,0.3369140625,0.006650390625,0
0.07828125,5.34375,20,0.10968149021998,0.60150146484375,0.012029418945313,0
0.075,5.609375,21,0.12135304899342,0.736328125,0.014716796875,0
0.07171875,5.25,21,0.10457666707672,0.54681396484375,0.010813208007813,0
0.1159375,9.3046875,31,0.15445847945322,1.19287109375,0.02369326171875,0
0.05828125,4.3203125,26,0.083172859812411,0.34588623046875,0.0068268798828125,0
0.14171875,10.9609375,25,0.22322706436635997,2.4915161132812003,0.04956115722656201,0
0.080625,6.875,23,0.16761044632942998,1.4046630859375,0.02809169921875,0
0.21453125,17.0,30,0.31831503717328,5.0662231445312,0.10126096191406,0
0.07609375,6.21875,26,0.11197250464679,0.62689208984375,0.012474340820313,0
0.0403125,2.9453125,24,0.049607837082461,0.123046875,0.002384375,0
0.0509375,3.328125,22,0.062519528199195,0.1954345703125,0.00370205078125,0
0.08296875,6.21875,29,0.09779677389553801,0.47821044921875,0.0093960205078125,0
0.0728125,5.34375,26,0.099363206847404,0.49365234375,0.00973935546875,0
0.1840625,14.4296875,24,0.27228776138489996,3.70703125,0.0738765625,0
0.30734375,25.5078125,29,0.41625158361185,8.6632690429688,0.17301633300781,0
0.20578125,17.6328125,26,0.29709490210937,4.4132690429688,0.088263403320313,0
0.0578125,4.8515625,24,0.084533993717025,0.3572998046875,0.0068060546875,0
0.083125,6.625,26,0.12004841145867,0.7205810546875,0.0137388671875,0
0.08375,6.0859375,22,0.12631147946149002,0.7977294921875,0.0157568359375,0
0.111875,8.8671875,28,0.16375715633217,1.3408203125,0.02669677734375,0
0.14234375,11.15625,25,0.21110236612689998,2.2282104492187997,0.044558715820312005,0
0.14640625,12.21875,31,0.24485676217817,2.9977416992188,0.05992141113281299,0
0.06828125,4.390625,19,0.090846980291725,0.41265869140625,0.0081435791015625,0
0.1446875,11.25,25,0.21604917517489,2.3338623046875,0.04639248046875,0
0.12625,10.734375,28,0.17608480733726004,1.55029296875,0.030905859375,0
0.0646875,4.9140625,25,0.09299172510229099,0.432373046875,0.00861220703125,0
0.16,12.640625,24,0.23358721771802998,2.7281494140625,0.054042578125,0
0.21109375,16.8125,25,0.30010374182835,4.5031127929688,0.089445043945313,0
0.12171875,9.171875,25,0.16964102148913,1.4389038085938,0.028714575195312998,0
0.09265625,6.5546875,25,0.12212014607805001,0.74566650390625,0.014906274414063,0
0.05984375,4.5546875,24,0.08468548198702701,0.35858154296875,0.0069323486328125,0
0.0815625,7.03125,34,0.11259761390123,0.6339111328125,0.01261220703125,0
0.13875,12.28125,30,0.18703718923318,1.7491455078125,0.03486328125,0
0.12078125,10.7890625,31,0.17138780381601001,1.4686889648438,0.029364965820312002,0
0.26203125,21.46875,29,0.34762903685628005,6.0422973632812,0.12084572753906,0
0.3365625,27.7265625,30,0.42957953188990994,9.2269287109375,0.1820697265625,0
0.246875,19.375,25,0.34186985827942995,5.84375,0.1168359375,0
0.089375,6.140625,23,0.11980412072942,0.7176513671875,0.0140990234375,0
0.10859375,8.015625,22,0.15132471682404,1.1449584960938,0.022576293945312003,0
0.09453125,7.8203125,32,0.13077947654114,0.85516357421875,0.016980200195312,0
0.184375,16.234375,33,0.22973001307241,2.6387939453125,0.0525953125,0
0.09375,8.6015625,30,0.15131261617096,1.144775390625,0.0227955078125,0
0.15125,12.5390625,30,0.26929450653513,3.6259765625,0.07251796875,0
0.1934375,15.5859375,25,0.32503004668798996,5.2822265625,0.104547265625,0
0.1746875,13.40625,24,0.30386909316554,4.6168212890625,0.09228916015625,0
0.055,3.9296875,26,0.07243329366562,0.2623291015625,0.00496181640625,0
0.15546875,12.1953125,23,0.22129380304388002,2.4485473632812003,0.048891625976562006,0
0.141875,11.796875,26,0.18938505542611,1.7933349609375,0.0358236328125,0
0.226875,19.265625,28,0.30795523340455,4.7418212890625,0.094801171875,0
0.11671875,8.0234375,27,0.18958798357392,1.7971801757812,0.035938110351562004,0
0.0940625,6.3515625,25,0.15326046304004998,1.1744384765625,0.02348251953125,0
0.06109375,4.546875,27,0.08083578309217401,0.32672119140625,0.0065324462890625,0
0.18234375,14.5546875,29,0.27572480831778007,3.8012084960938,0.076008911132812,0
0.0284375,2.015625,18,0.03912495007984,0.0765380859375,0.0014791015625,0
0.044375,2.8828125,18,0.082664962915071,0.3416748046875,0.0067138671875,0
0.02859375,2.1484375,17,0.043343535958376,0.09393310546875,0.0018200439453125,0
0.04546875,2.96875,14,0.0625683220318,0.19573974609375,0.0038696533203125,0
0.111875,7.78125,23,0.17117756223437,1.465087890625,0.02930166015625,0
0.09125,6.515625,23,0.13977171678312,0.976806640625,0.01952431640625,0
0.083125,6.3828125,25,0.11377317758373,0.647216796875,0.01294189453125,0
0.03203125,2.203125,25,0.040969095631647,0.08392333984375,0.0016198486328125,0
0.07328125,5.40625,22,0.11442045715528998,0.65460205078125,0.013065454101563,0
0.0859375,7.375,22,0.13843785270835002,0.958251953125,0.0190384765625,0
0.06453125,4.4765625,19,0.095702327802802,0.45794677734375,0.0091218017578125,0
0.07625,5.453125,23,0.10045064475278,0.5045166015625,0.010068359375,0
0.04046875,3.1328125,25,0.05047382907879099,0.12738037109375,0.0024567626953125,0
0.08796875,6.3203125,16,0.15547856438871,1.2086791992188,0.024105004882812003,0
0.07671875,6.2421875,23,0.11162310153761,0.62298583984375,0.012454223632813,0
0.069375,4.84375,26,0.09365880981653599,0.4385986328125,0.00872470703125,0
0.21140625,16.140625,26,0.28687304261315005,4.1148071289062,0.082173071289063,0
0.2978125,24.1484375,27,0.40908565633465,8.3675537109375,0.16687255859375,0
0.19921875,16.0390625,28,0.28472034319333,4.0532836914062,0.080949438476562,0
0.0740625,5.8359375,27,0.097952675116609,0.479736328125,0.00957822265625,0
0.08640625,6.4140625,19,0.14615431565429,1.0680541992188,0.021361059570312,0
0.09046875,6.3203125,21,0.16700121046529998,1.3944702148438,0.027876489257812997,0
0.104375,9.28125,30,0.14660047482444,1.0745849609375,0.0214400390625,0
0.06625,4.7265625,22,0.092399121512328,0.4268798828125,0.00840390625,0
0.19265625,13.96875,25,0.27551221828056,3.7953491210938,0.07587707519531199,0
0.27984375,21.6171875,26,0.39920728334804,7.9683227539062,0.15924338378906,0
0.07296875,4.921875,20,0.12704864195211002,0.80706787109375,0.015902075195313,0
0.02328125,1.8671875,29,0.028958989051329,0.04193115234375,0.0007934814453125,0
0.03625,2.65625,20,0.046953060004115005,0.1102294921875,0.00211669921875,0
0.03484375,2.40625,20,0.046495862551145,0.10809326171875,0.0020094970703125,0
0.24484375,19.0625,30,0.34861787651828996,6.0767211914062,0.12152736816406,0
0.165625,12.9296875,26,0.23717082451263,2.8125,0.05613037109375,0
0.07625,6.3984375,27,0.11201065448764,0.6273193359375,0.01245849609375,0
0.04828125,3.6875,26,0.062782564383951,0.19708251953125,0.0038447509765625,0
0.06484375,3.9375,21,0.1001524716526,0.50152587890625,0.010021704101562999,0
0.0896875,6.453125,27,0.10690286551936,0.5714111328125,0.011334375,0
0.0671875,4.984375,25,0.094295289185091,0.444580078125,0.0087787109375,0
0.17109375,13.9375,25,0.26449899205266,3.4979858398438,0.069774926757812,0
0.28765625,23.625,27,0.40693601932997,8.2798461914062,0.16535764160156,0
0.19703125,17.2734375,28,0.2930406161855,4.2936401367188,0.085793481445312,0
0.0525,3.9921875,22,0.076753588067595,0.2945556640625,0.005478515625,0
0.10296875,8.3046875,28,0.15378127857651,1.1824340820312,0.022883813476562997,0
0.1634375,12.375,24,0.24913914284993,3.103515625,0.06177490234375,0
0.0996875,7.5390625,22,0.15873800397589002,1.2598876953125,0.02514150390625,0
0.02953125,2.21875,22,0.042375161319752,0.08978271484375,0.0017417236328125,0
0.0578125,4.6640625,23,0.1255651287679,0.788330078125,0.0157650390625,0
0.12203125,9.234375,21,0.24461734706348,2.9918823242188,0.059834692382812006,0
0.0909375,7.0390625,23,0.19146204543917,1.8328857421875,0.03628232421875,0
0.03921875,2.7421875,18,0.051574335762809,0.13299560546875,0.0025805908203125,0
0.11421875,9.515625,27,0.16406622019592002,1.3458862304688,0.026688012695312003,0
0.084375,6.421875,22,0.13948321191545,0.9727783203125,0.01923984375,0
0.113125,9.0859375,24,0.18879759333742,1.7822265625,0.035503515625,0
0.02515625,1.875,20,0.033856169812532005,0.05731201171875,0.0010669189453125,0
0.03109375,2.578125,24,0.048500463109902005,0.11761474609375,0.0022673095703125,0
0.045,3.859375,26,0.065326703001146,0.21337890625,0.00417373046875,0
0.0521875,3.9453125,23,0.073154374441998,0.267578125,0.005304296875,0
0.1275,10.390625,27,0.19621665719938,1.925048828125,0.0384818359375,0
0.0246875,1.625,21,0.03224963662586,0.052001953125,0.0009634765625,0
0.06921875,4.9921875,25,0.096956870646824,0.47003173828125,0.0093097900390625,0
0.0734375,5.3046875,20,0.10512966324378001,0.5526123046875,0.01095224609375,0
0.05109375,4.1484375,30,0.06772135291490401,0.22930908203125,0.0045859619140625,0
0.09953125,8.171875,21,0.17636534900066,1.5552368164062,0.031089477539063,0
0.0978125,8.203125,25,0.15117540774295998,1.1427001953125,0.02281875,0
0.1521875,13.015625,24,0.25749032900529,3.3150634765625,0.06629775390625,0
0.0675,5.7421875,25,0.098387884321445,0.4840087890625,0.00963291015625,0
0.17765625,13.4453125,30,0.28968050490476,4.1957397460938,0.083798559570313,0
0.189375,12.7890625,23,0.27836629280276,3.8743896484375,0.0772134765625,0
0.1096875,7.7421875,21,0.16875,1.423828125,0.02847177734375,0
0.0578125,4.4609375,29,0.074657420721252,0.2786865234375,0.0055728515625,0
0.070625,5.4375,17,0.12411798192647001,0.770263671875,0.01540283203125,0
0.06375,4.4296875,22,0.09457966219013499,0.447265625,0.0089390625,0
0.153125,10.78125,24,0.2236177157841,2.500244140625,0.04994384765625,0
0.11828125,9.3515625,31,0.15499889742551,1.2012329101562,0.024001196289062002,0
0.06203125,5.2578125,29,0.09471508467833901,0.44854736328125,0.0089338134765625,0
0.1809375,12.2890625,23,0.27682720383165,3.8316650390625,0.076168359375,0
0.10171875,7.5625,22,0.16590851324035,1.3762817382812,0.027480493164062997,0
0.06546875,4.2578125,23,0.08646852977022901,0.37384033203125,0.0073605712890625,0
0.1040625,8.1171875,17,0.16407738027757,1.3460693359375,0.0269095703125,0
0.09265625,6.7265625,17,0.13011507076671,0.84649658203125,0.016906469726563,0
0.1928125,14.40625,28,0.25423176249733,3.231689453125,0.06460556640625,0
0.0346875,2.59375,26,0.049237347676839995,0.1212158203125,0.00236806640625,0
0.0528125,4.03125,21,0.08958181927015099,0.4012451171875,0.0080083984375,0
0.0815625,6.3828125,27,0.12611804676076,0.7952880859375,0.0156900390625,0
0.05625,4.0078125,21,0.082650194721489,0.341552734375,0.00683095703125,0
0.08234375,5.7890625,23,0.11431372163098,0.65338134765625,0.013018188476562,0
0.07234375,4.9609375,19,0.11865230356224,0.70391845703125,0.013975219726561999,0
0.17484375,13.46875,23,0.2893938135083,4.1874389648438,0.083639184570312,0
0.0765625,6.0078125,27,0.10494371631378999,0.5506591796875,0.01090029296875,0
0.0890625,7.1875,29,0.11400897716847001,0.64990234375,0.01295078125,0
0.09984375,7.1953125,26,0.13436137285553998,0.90264892578125,0.018026391601563,0
0.06578125,5.3515625,26,0.09096783214068,0.41375732421875,0.0081655517578125,0
0.15203125,12.796875,33,0.21711723233803001,2.3569946289062003,0.047094750976562995,0
0.25015625,19.3984375,28,0.32586835616070003,5.3095092773438,0.10606008300781,0
0.16234375,12.578125,24,0.23668909674006,2.8010864257812,0.05598830566406201,0
0.053125,3.8828125,19,0.074395349106984,0.2767333984375,0.0054283203125,0
0.064375,4.5390625,21,0.09625558019538401,0.4632568359375,0.00873037109375,0
0.06796875,5.796875,26,0.12485831814251,0.77947998046875,0.015548559570313,0
0.06359375,5.3125,26,0.090806660600283,0.41229248046875,0.0081772705078125,0
0.054375,4.4296875,21,0.082576314135774,0.3409423828125,0.00674228515625,0
0.10859375,9.6953125,26,0.19037829835455,1.8121948242188,0.036230981445312005,0
0.19453125,14.8515625,23,0.30296186009443,4.5892944335938,0.091770629882812,0
0.13734375,10.5625,17,0.22655980601847,2.5664672851562003,0.051152954101562995,0
0.08203125,5.671875,22,0.12926795843567002,0.83551025390625,0.016168188476563,0
0.08609375,6.5234375,25,0.13019010289045,0.84747314453125,0.016555688476563,0
0.088125,7.0703125,27,0.13854362467288,0.959716796875,0.0190814453125,0
0.06296875,5.234375,25,0.091449642478115,0.41815185546875,0.0082837158203125,0
0.04203125,3.25,20,0.06465994280174599,0.20904541015625,0.0040435791015625,0
0.12265625,8.9921875,22,0.2016381883086,2.0328979492188,0.040276489257812007,0
0.2165625,17.5078125,27,0.34136244713281,5.826416015625,0.1161529296875,0
0.1409375,11.9140625,24,0.22861142489769,2.6131591796875,0.0511451171875,0
0.093125,7.015625,21,0.14603315922677,1.0662841796875,0.02101943359375,0
0.07765625,5.75,23,0.11240773125935001,0.63177490234375,0.012433325195313,0
0.0834375,5.8671875,26,0.10444234354417999,0.54541015625,0.0105328125,0
0.055,4.03125,28,0.070589731237978,0.2491455078125,0.00465439453125,0
0.04609375,3.6875,22,0.066905293956271,0.22381591796875,0.0043239501953125,0
0.045,3.765625,27,0.061694021944999,0.1903076171875,0.0036998046875,0
0.0334375,2.5,20,0.044000399501027,0.0968017578125,0.0018296875,0
0.05390625,4.015625,19,0.082790386198368,0.34271240234375,0.0066520751953125,0
0.0525,3.8125,22,0.073636697924676,0.2711181640625,0.005351171875,0
0.18921875,14.1953125,21,0.30653884656455,4.6983032226562,0.09357229003906199,0
0.145625,11.3046875,28,0.22689092574958,2.573974609375,0.05138564453125,0
0.07546875,5.703125,23,0.11332703816003001,0.64215087890625,0.012809594726561999,0
0.09265625,6.5,21,0.14137387405607998,0.99932861328125,0.019775415039063,0
0.05734375,4.1953125,20,0.07759979713649401,0.30108642578125,0.0059806884765625,0
0.0675,5.28125,29,0.090111692845601,0.406005859375,0.0080322265625,0
0.06609375,4.8203125,23,0.10313091839078,0.53179931640625,0.010562133789063,0
0.14828125,10.1796875,23,0.24606026557914,3.0272827148438,0.060496215820312005,0
0.19828125,14.984375,21,0.30980675365359,4.7990112304688,0.095282934570313,0
0.15359375,12.1484375,32,0.23276792778028,2.7090454101562,0.054180688476562995,0
0.04265625,3.03125,19,0.06875887726777499,0.23638916015625,0.0047072509765625,0
0.103125,8.203125,26,0.15186824830671,1.1531982421875,0.02306357421875,0
0.13109375,9.9609375,28,0.20355423398170003,2.0717163085938,0.04112258300781299,0
0.06078125,4.5234375,19,0.09022676510118802,0.40704345703125,0.0080957275390625,0
0.025625,1.8203125,19,0.035527553127819,0.0631103515625,0.001219140625,0
0.02375,1.5625,18,0.036039258108346,0.06494140625,0.001273828125,0
0.04421875,2.78125,23,0.069518081618202,0.24163818359375,0.0047589111328125,0
0.0365625,2.671875,25,0.063718589075324,0.2030029296875,0.00406005859375,0
0.039375,2.7890625,24,0.058170345215582,0.169189453125,0.00327744140625,0
0.07546875,5.875,24,0.1060142144803,0.56195068359375,0.011238403320312,0
0.0403125,2.875,17,0.06938626034742,0.24072265625,0.00468076171875,0
0.034375,2.3203125,20,0.048789046862487,0.1190185546875,0.00225380859375,0
0.03390625,2.4375,19,0.04934878655423001,0.12176513671875,0.0023321533203125,0
0.06421875,4.59375,23,0.10851784667452,0.58880615234375,0.011631372070312,0
0.1009375,7.421875,28,0.14164560198785,1.003173828125,0.0200494140625,0
0.0559375,4.3125,23,0.086968250312973,0.378173828125,0.00755869140625,0
0.049375,3.40625,19,0.069333461663543,0.2403564453125,0.00476806640625,0
0.22359375,18.9296875,29,0.34567112316568,5.9744262695312,0.11948557128906001,0
0.15625,13.5,26,0.25277271009496,3.1947021484375,0.0637876953125,0
0.05328125,3.375,16,0.089643118374335,0.40179443359375,0.0080329345703125,0
0.188125,14.921875,27,0.26683547716711,3.56005859375,0.07083779296875,0
0.06234375,4.765625,26,0.096071516736882,0.46148681640625,0.0090773681640625,0
0.05234375,4.1171875,25,0.075073206459595,0.28179931640625,0.0055773681640625,0
0.0409375,2.828125,23,0.054508636070350995,0.1485595703125,0.00286484375,0
0.0440625,3.1875,18,0.063661089960823,0.20263671875,0.00400107421875,0
0.060625,4.4609375,20,0.09438586444086801,0.4454345703125,0.00888955078125,0
0.1825,13.5859375,25,0.28408725139691,4.0352783203125,0.08070205078125,0
0.26796875,18.7265625,27,0.38413832906829,7.3781127929688,0.14748293457031,0
0.18734375,14.59375,25,0.28101335530429,3.9484252929688,0.078823754882813,0
0.08265625,6.2421875,27,0.11860085206007,0.70330810546875,0.013943090820313,0
0.05734375,4.40625,24,0.08628480955171099,0.37225341796875,0.0071759033203125,0
0.0425,2.75,20,0.056315066534187996,0.1585693359375,0.00304482421875,0
0.32296875,24.71875,28,0.41409934977536,8.5739135742188,0.17114406738281002,0
0.05171875,3.671875,24,0.08104692169123401,0.32843017578125,0.0064385009765625,0
0.26703125,21.71875,28,0.36818183188219006,6.7778930664062,0.13554709472656,0
0.3153125,24.0546875,30,0.41080083278731006,8.4378662109375,0.1687291015625,0
0.2484375,20.046875,25,0.33495131409281,5.609619140625,0.1121607421875,0
0.07921875,5.78125,29,0.11284127922385,0.63665771484375,0.012648168945312,0
0.09984375,7.3828125,26,0.13451573299014,0.90472412109375,0.017725122070312,0
0.06203125,3.875,20,0.07821089028629599,0.30584716796875,0.0059321533203125,0
0.08421875,6.2734375,24,0.11853908077877,0.70257568359375,0.013840356445313,0
0.07171875,5.4921875,24,0.11545067094597,0.66644287109375,0.012909887695313,0
0.1875,15.1640625,23,0.31430339020403997,4.9393310546875,0.0982943359375,0
0.2225,17.8671875,26,0.33596293508362,5.6435546875,0.11286484375,0
0.17,13.8046875,21,0.27685366029502,3.8323974609375,0.07664638671875,0
0.03796875,2.609375,22,0.04824811767701401,0.11639404296875,0.0023259033203125,0
0.08390625,7.0625,28,0.12140836146813,0.73699951171875,0.014655004882812,0
0.07046875,4.734375,23,0.09033493449726401,0.40802001953125,0.0081597900390625,0
0.19734375,14.5078125,25,0.28779494042525,4.1412963867188,0.08236770019531199,0
0.0525,3.703125,17,0.07206157848500098,0.2596435546875,0.0050443359375,0
0.0759375,6.0234375,22,0.10338508868546,0.534423828125,0.0106880859375,0
0.09546875,7.65625,23,0.18615730180582002,1.7327270507812,0.034639282226562006,0
0.04796875,3.3984375,25,0.074403552817557,0.27679443359375,0.0054389892578125,0
0.02203125,1.5234375,11,0.030237503875567995,0.04571533203125,0.0008404541015625,0
0.026875,2.1015625,24,0.03874873989886599,0.0750732421875,0.0014583984375,0
0.04046875,2.875,26,0.081467557288929,0.33184814453125,0.0065519775390625,0
0.04234375,2.2109375,14,0.11909386889918,0.70916748046875,0.013924340820313,0
0.04046875,2.625,17,0.055912616672134,0.15631103515625,0.0031207275390625,0
0.07203125,6.1171875,22,0.10627871854527,0.56475830078125,0.011294555664063,0
0.07234375,5.7421875,21,0.17508717136935997,1.5327758789062,0.030646704101562002,0
0.04515625,3.203125,20,0.07484521788748401,0.28009033203125,0.0056006103515625,0
0.02828125,1.8125,13,0.038606715939392994,0.07452392578125,0.0014453369140625,0
0.074375,5.1796875,19,0.10783514254986999,0.5814208984375,0.0115220703125,0
0.058125,4.1796875,21,0.09044972274003901,0.4090576171875,0.00817490234375,0
0.04875,3.3125,20,0.072163145242222,0.2603759765625,0.005205078125,0
0.059375,4.0234375,18,0.09000325514946698,0.405029296875,0.0080814453125,0
0.0596875,4.4453125,18,0.08157985926379101,0.332763671875,0.00642080078125,0
0.03921875,2.3203125,20,0.056152258831457996,0.15765380859375,0.0029928955078125,0
0.0428125,2.828125,18,0.059723483917550994,0.1783447265625,0.00342587890625,0
0.05890625,3.9140625,20,0.07715807890703999,0.29766845703125,0.0058302978515625,0
0.15703125,11.0078125,22,0.21816607331773002,2.3798217773437997,0.047572973632812994,0
0.225625,17.0,26,0.30696663601278,4.71142578125,0.09367919921875,0
0.133125,9.8046875,27,0.18414312750209,1.6954345703125,0.0337890625,0
0.08046875,5.828125,18,0.11739044926280999,0.68902587890625,0.013706665039062,0
0.06546875,4.703125,21,0.08457008696563499,0.35760498046875,0.0068725830078125,0
0.048125,3.1328125,23,0.060877374183682,0.185302734375,0.00352548828125,0
0.0609375,4.3046875,27,0.09426939455624,0.4443359375,0.00888427734375,0
0.07515625,5.265625,19,0.11652416427237,0.67889404296875,0.013366723632813,0
0.0821875,6.03125,22,0.12689962815154,0.80517578125,0.01569091796875,0
0.02171875,1.5390625,17,0.027444012609766005,0.03765869140625,0.0006500244140625,0
0.04390625,3.3125,24,0.055275852972839996,0.15277099609375,0.0029585205078125,0
0.05171875,3.875,23,0.069254188163063,0.23980712890625,0.0046437744140625,0
0.15,12.203125,20,0.22582314706425,2.5498046875,0.050751953125,0
0.22390625,17.03125,29,0.31876723299003995,5.0806274414062,0.10150295410156,0
0.15734375,11.7890625,22,0.24123046795932998,2.9096069335938,0.05810129394531299,0
0.0471875,3.53125,23,0.066456782244177,0.2208251953125,0.00433994140625,0
0.0603125,4.5,19,0.081385104019409,0.3311767578125,0.00651064453125,0
0.035,2.859375,30,0.054351647284144,0.147705078125,0.0029068359375,0
0.04171875,3.421875,21,0.06164453607680901,0.19000244140625,0.0037314697265625,0
0.02609375,1.609375,18,0.042919005296314,0.09210205078125,0.0017189697265625,0
0.04046875,2.890625,16,0.07796076487166499,0.30389404296875,0.0059682861328125,0
0.05890625,5.34375,23,0.120317572945,0.72381591796875,0.014426879882813,0
0.03796875,2.765625,18,0.061624730602858994,0.18988037109375,0.0037237548828125,0
0.03890625,2.609375,17,0.054676338146632995,0.14947509765625,0.0027502197265625,0
0.085,6.828125,25,0.11070618489949001,0.61279296875,0.01220859375,0
0.04453125,3.8125,34,0.066905293956271,0.22381591796875,0.0044610595703125,0
0.0434375,3.890625,25,0.065008262695984,0.2113037109375,0.0041978515625,0
0.0165625,1.140625,15,0.023070036031615004,0.026611328125,0.0004849609375,0
0.0309375,2.4765625,23,0.047289831095067,0.11181640625,0.00217529296875,0
0.03375,2.734375,19,0.055043484230652,0.1514892578125,0.00289609375,0
0.02859375,2.015625,23,0.04362426127598001,0.09515380859375,0.0018659423828125,0
0.05859375,4.125,20,0.075785276954861,0.28717041015625,0.0056695556640625,0
0.10328125,8.0703125,28,0.12647083872132,0.79974365234375,0.015994262695313,0
0.09515625,6.8671875,29,0.15691654703815,1.2311401367188,0.024543481445312997,0
0.07953125,5.4765625,25,0.11873457959089,0.70489501953125,0.014029321289063,0
0.0315625,2.1484375,23,0.039651804813905,0.07861328125,0.00145263671875,0
0.04671875,3.2734375,17,0.065092707324823,0.21185302734375,0.0039575439453125,0
0.07359375,5.34375,23,0.094921071241453,0.45050048828125,0.0089191650390625,0
0.14359375,11.0625,20,0.23759506732175,2.8225708007812,0.056372094726562995,0
0.1021875,8.8984375,27,0.20295666101412,2.0595703125,0.04107177734375,0
0.07109375,5.40625,20,0.12520978489869,0.78387451171875,0.015418481445311999,0
0.06703125,4.8828125,30,0.1279963149494,0.81915283203125,0.016230688476563,0
0.0534375,3.2109375,20,0.084937362030793,0.3607177734375,0.00712646484375,0
0.048125,3.9375,24,0.069684697253055,0.2427978515625,0.00480869140625,0
0.030625,2.0390625,18,0.042475866309588,0.0902099609375,0.0017330078125,0
0.03984375,3.09375,25,0.055628072246618,0.15472412109375,0.0030493408203125,0
0.07109375,5.65625,25,0.10279896377457,0.52838134765625,0.010499047851563,0
0.17421875,14.078125,25,0.26856597987622,3.6063842773438,0.072073754882812,0
0.16296875,13.3125,29,0.24679340028021998,3.0453491210938,0.060861840820312006,0
0.115,8.3125,29,0.18367850437313002,1.6868896484375,0.03373623046875,0
0.04984375,3.34375,23,0.077426565511296,0.29974365234375,0.0059454345703125,0
0.0428125,2.84375,19,0.060008951155223,0.1800537109375,0.00356943359375,0
0.05796875,4.625,24,0.09237930258924301,0.42669677734375,0.0085251220703125,0
0.03421875,2.546875,25,0.045110000103912994,0.10174560546875,0.0020319580078125,0
0.04546875,3.484375,24,0.081945639851215,0.33575439453125,0.0067021728515625,0
0.09453125,6.9609375,16,0.17851861663248003,1.5934448242188,0.031860083007812,0
0.12140625,8.8828125,26,0.21814369099718,2.3793334960937997,0.047575903320312994,0
0.07890625,5.578125,21,0.14090683563307,0.99273681640625,0.019839477539063,0
0.065625,4.65625,23,0.086940173395272,0.3779296875,0.00730458984375,0
0.053125,4.03125,22,0.08325354252973301,0.3465576171875,0.00687490234375,0
0.029375,2.0703125,20,0.037205877811846005,0.0692138671875,0.00131826171875,0
0.039375,3.125,28,0.049755260400283004,0.123779296875,0.00240439453125,0
0.03859375,3.1015625,24,0.056993780499498,0.16241455078125,0.0031513916015625,0
0.125,10.578125,19,0.21296479499262003,2.2677001953125,0.04518173828125,0
0.19140625,13.7890625,25,0.29885646311712,4.4657592773438,0.089205590820312,0
0.02484375,1.6953125,18,0.034143395911581,0.05828857421875,0.0011587158203125,0
0.11046875,8.4765625,29,0.16718384925920998,1.3975219726562,0.027950219726562003,0
0.131875,9.875,22,0.19857893581647001,1.9716796875,0.03939052734375,0
0.093125,6.3671875,25,0.13495514301056,0.91064453125,0.01819638671875,0
0.12203125,9.453125,27,0.20513726825744,2.1040649414062,0.041791235351562005,0
0.0759375,5.7734375,29,0.12444211442976,0.7742919921875,0.01542958984375,0
0.03671875,2.375,22,0.047892600387482,0.11468505859375,0.0022784423828125,0
0.0990625,8.0859375,25,0.1537455537975,1.181884765625,0.02363759765625,0
0.02484375,1.671875,21,0.036191358818439,0.06549072265625,0.0012763916015625,0
0.02484375,1.625,15,0.033016479076742995,0.05450439453125,0.0009992431640625,0
0.01859375,1.265625,19,0.027354908437517998,0.03741455078125,0.0006744384765625,0
0.03109375,2.1796875,18,0.051716153635736,0.13372802734375,0.0025952392578125,0
0.06265625,4.8125,31,0.10561043723574001,0.55767822265625,0.011090063476563,0
0.05375,3.9140625,30,0.08698228537323,0.3782958984375,0.0074947265625,0
0.03359375,2.5703125,22,0.048146809181658,0.11590576171875,0.0022975830078125,0
0.068125,5.65625,26,0.10071763980927,0.5072021484375,0.0099955078125,0
0.065625,4.1875,20,0.10989830171003999,0.6038818359375,0.01187099609375,0
0.03046875,2.21875,17,0.040849738945004,0.08343505859375,0.0016147705078125,0
0.03609375,2.671875,23,0.051074872277129,0.13043212890625,0.0025978759765625,0
0.09125,6.2109375,19,0.13400202598748,0.8978271484375,0.0177923828125,0
0.14203125,10.7578125,25,0.22575556731092003,2.5482788085937997,0.05090207519531299,0
0.08796875,6.8125,28,0.12177981058297001,0.74151611328125,0.014800415039063,0
0.03953125,2.8125,17,0.06044472229339,0.18267822265625,0.0035627197265625,0
0.04546875,3.3046875,23,0.070095150175494,0.24566650390625,0.0047369384765625,0
0.03234375,2.390625,20,0.044702248440375,0.09991455078125,0.0019074462890625,0
0.06328125,4.921875,28,0.086355517430127,0.37286376953125,0.0074078369140625,0
0.08953125,6.4609375,24,0.1335960343372,0.89239501953125,0.017806860351562,0
0.2153125,15.5078125,27,0.2865345542535,4.1051025390625,0.08177353515625,0
0.21359375,17.6484375,30,0.27889421367586,3.8890991210938,0.077713403320312,0
0.0809375,5.9375,25,0.10784646204211,0.58154296875,0.01148232421875,0
0.04234375,3.1875,20,0.057547958939697,0.16558837890625,0.0032883056640625,0
0.04140625,3.1875,20,0.065298667793646,0.21319580078125,0.0040617431640625,0
0.03421875,2.25,16,0.050955230809751006,0.12982177734375,0.0024591064453125,0
0.04625,3.5859375,30,0.089853939639562,0.4036865234375,0.0080025390625,0
0.1021875,6.7265625,23,0.13621559198564998,0.927734375,0.01849365234375,0
0.09421875,7.09375,24,0.11532372066003999,0.66497802734375,0.013245629882813,0
0.1265625,8.8828125,24,0.1855431743052,1.7213134765625,0.03416220703125,0
0.0925,5.7421875,22,0.12687076655499,0.8048095703125,0.01593203125,0
0.075625,4.7265625,23,0.10483897623260001,0.549560546875,0.0108912109375,0
0.20546875,15.125,24,0.30415618739083006,4.6255493164062,0.092394750976562,0
0.23765625,17.9140625,26,0.34815536503568,6.0606079101562,0.12118869628906001,0
0.1909375,13.3203125,24,0.28527929708226,4.0692138671875,0.0812779296875,0
0.0978125,6.359375,23,0.13328958429394,0.8883056640625,0.01766611328125,0
0.10203125,7.8203125,28,0.12498535070409,0.78106689453125,0.015352172851563001,0
0.0996875,6.765625,21,0.13688605834324,0.9368896484375,0.01849365234375,0
0.09625,6.90625,27,0.14219608490567,1.010986328125,0.0199134765625,0
0.04265625,3.53125,22,0.091382876285029,0.41754150390625,0.0082658447265625,0
0.0715625,4.5859375,24,0.10241231005108999,0.5244140625,0.01042724609375,0
0.266875,22.34375,34,0.37434839220971994,7.0068359375,0.14013046875,0
0.20140625,15.6328125,28,0.30430464728521,4.6300659179688,0.092516333007813,0
0.0665625,4.796875,22,0.084533993717025,0.3572998046875,0.00697373046875,0
0.11765625,8.296875,29,0.14437280166075,1.0421752929688,0.020733911132813,0
0.08078125,5.78125,27,0.11950316254967999,0.71405029296875,0.014143676757812,0
0.09390625,7.203125,27,0.15631639214467002,1.2217407226562,0.024165649414062997,0
0.0528125,3.6328125,19,0.07041658962027299,0.2479248046875,0.00491123046875,0
0.11828125,8.484375,25,0.14962110348936,1.1193237304688,0.022341333007812002,0
0.235625,19.859375,28,0.30970626204518,4.7958984375,0.09581796875,0
0.14,11.5078125,26,0.20506287145654,2.1025390625,0.04203671875,0
0.05375,3.40625,20,0.069298240192302,0.2401123046875,0.00471435546875,0
0.1190625,9.1171875,27,0.16927724346837,1.4327392578125,0.0286328125,0
0.18171875,13.1875,28,0.2781315834895,3.8678588867188,0.077219848632813,0
0.03203125,2.40625,25,0.045888047361214004,0.10528564453125,0.0019123291015625,0
0.02734375,1.859375,21,0.037320534101551006,0.06964111328125,0.0012326416015625,0
0.06296875,5.25,29,0.085816676427866,0.36822509765625,0.0073273681640625,0
0.0690625,5.5625,28,0.099080242890548,0.4908447265625,0.009745703125,0
0.07515625,6.1640625,25,0.12591946986318,0.79278564453125,0.015787133789063,0
0.1746875,15.0,28,0.28316190432772,4.009033203125,0.0800396484375,0
0.19921875,14.9765625,21,0.28849395100353004,4.1614379882812,0.082834985351562,0
0.17515625,14.296875,34,0.24898475496126998,3.0996704101562,0.06149416503906201,0
0.03734375,2.578125,17,0.050352759513506,0.12677001953125,0.0024123291015625,0
0.06953125,5.8203125,26,0.12016529143486,0.72198486328125,0.014323461914063,0
0.04578125,3.3515625,22,0.075089464869414,0.28192138671875,0.0055352783203125,0
0.0784375,5.640625,20,0.11134388594575001,0.619873046875,0.01227783203125,0
0.03140625,1.765625,19,0.044565502177974003,0.09930419921875,0.0018698486328125,0
0.04140625,3.0390625,16,0.076745635564018,0.29449462890625,0.0057525634765625,0
0.07625,5.578125,17,0.15360257159305998,1.1796875,0.02349375,0
0.04,3.0234375,21,0.054081463437115,0.146240234375,0.00280517578125,0
0.06109375,4.6640625,24,0.10951442006935,0.59967041015625,0.011934790039063,0
0.0725,5.6796875,18,0.12282283671512001,0.7542724609375,0.0144759765625,0
0.05140625,3.4765625,19,0.078007724477291,0.30426025390625,0.0059404541015625,0
0.08703125,6.8203125,22,0.12452546645917001,0.77532958984375,0.015137231445312,0
0.02640625,1.734375,16,0.04006525439049399,0.08026123046875,0.0013755126953125,0
0.02640625,1.953125,10,0.067847413247485,0.23016357421875,0.0042218017578125,0
0.030625,2.453125,21,0.058044298815645996,0.16845703125,0.00327529296875,0
0.02921875,2.1953125,18,0.04607388343058401,0.10614013671875,0.0020378173828125,0
0.03375,1.921875,15,0.045581100455671,0.1038818359375,0.0018236328125,0
0.0703125,5.53125,20,0.09377603805077302,0.439697265625,0.0082298828125,0
0.05,3.2109375,16,0.065531928048471,0.2147216796875,0.0040966796875,0
0.091875,7.234375,29,0.13376496703639998,0.8946533203125,0.01768642578125,0
0.023125,1.5234375,14,0.038590903235089,0.074462890625,0.0013001953125,0
0.0296875,1.6484375,13,0.039805435008928004,0.0792236328125,0.00147158203125,0
0.02859375,1.796875,14,0.06879437488359799,0.23663330078125,0.0043752197265625,0
0.0484375,3.8125,27,0.064951905283833,0.2109375,0.00413662109375,0
0.204375,17.0546875,38,0.26161028536020997,3.4219970703125,0.06829140625,0
0.0315625,2.6015625,25,0.04828605356363299,0.1165771484375,0.00223154296875,0
0.0465625,3.71875,26,0.067441380796585,0.2274169921875,0.0045318359375,0
0.04828125,3.8125,26,0.07133800759850999,0.25445556640625,0.0050713134765625,0
0.02875,1.9296875,19,0.036643873123621,0.067138671875,0.0013037109375,0
0.10984375,8.5234375,29,0.15623828081051,1.2205200195312,0.024190063476563,0
0.10765625,7.3359375,22,0.14971082151309,1.1206665039062,0.022219946289062997,0
0.1115625,8.9140625,29,0.16165646445472,1.306640625,0.02600625,0
0.01921875,1.203125,15,0.023670714699286,0.02801513671875,0.0004571533203125,0
0.02140625,1.46875,24,0.026493476496582995,0.03509521484375,0.0006524658203125,0
0.03,1.921875,17,0.04227421643271499,0.08935546875,0.001773046875,0
0.04171875,3.28125,27,0.061960562684057,0.19195556640625,0.0038056884765625,0
0.040625,3.0703125,23,0.054508636070350995,0.1485595703125,0.00291953125,0
0.0640625,5.15625,24,0.09035520184250599,0.408203125,0.00812880859375,0
0.11453125,8.859375,27,0.16807227914092998,1.4124145507812,0.028110961914062003,0
0.08796875,6.703125,28,0.13151479984445,0.86480712890625,0.017285375976562,0
0.03265625,2.53125,22,0.041678058338591006,0.08685302734375,0.0016274658203125,0
0.06890625,5.2265625,29,0.09966374129102802,0.49664306640625,0.0098957275390625,0
0.0771875,5.3671875,19,0.11077232421728998,0.613525390625,0.01223525390625,0
0.1071875,8.5234375,33,0.14504343368883998,1.0518798828125,0.02103408203125,0
0.06859375,5.640625,27,0.092840641777322,0.43096923828125,0.0085742431640625,0
0.06375,4.96875,23,0.10137000989567999,0.5137939453125,0.0102734375,0
0.081875,5.96875,20,0.13305125598336,0.8851318359375,0.01770107421875,0
0.07078125,5.7890625,28,0.10550635903525,0.55657958984375,0.011105004882813001,0
0.07890625,7.046875,31,0.12547273888429,0.78717041015625,0.015698266601563,0
0.19796875,17.2109375,33,0.28982795610608,4.2000122070312,0.083941625976562,0
0.1921875,14.0078125,22,0.26665700259181,3.5552978515625,0.07110556640625,0
0.1128125,7.7890625,22,0.16452316278795,1.3533935546875,0.02706630859375,0
0.14734375,10.484375,25,0.24522540253178002,3.0067749023438,0.06012023925781201,0
0.03078125,2.28125,23,0.05797064518465401,0.16802978515625,0.0032082275390625,0
0.03984375,2.4921875,20,0.050060997948752,0.12530517578125,0.0023459228515625,0
0.0609375,4.1796875,20,0.11525489753694,0.6641845703125,0.01305869140625,0
0.035625,2.5078125,22,0.047624220794151,0.1134033203125,0.0021484375,0
0.0640625,5.4765625,26,0.09631896879639,0.4638671875,0.00922568359375,0
0.02625,1.953125,23,0.03583545294118701,0.064208984375,0.00123251953125,0
0.03796875,3.140625,17,0.07316271730277,0.26763916015625,0.0053033447265625,0
0.02328125,1.859375,20,0.031034412603189,0.04815673828125,0.0009332275390625,0
0.04125,3.671875,25,0.07386841658483001,0.2728271484375,0.00543740234375,0
0.05546875,3.0625,24,0.087255517823373,0.38067626953125,0.0072441650390625,0
0.04125,2.96875,27,0.060917464655056,0.185546875,0.00353037109375,0
0.04015625,2.875,21,0.05516532326221799,0.15216064453125,0.0029269775390625,0
0.0684375,4.703125,21,0.10181459098527999,0.518310546875,0.01007080078125,0
0.02125,1.375,21,0.028683687110447005,0.0411376953125,0.0006890625,0
0.0640625,5.0390625,24,0.13627830841242,0.9285888671875,0.0182318359375,0
0.0215625,1.4765625,16,0.0296875,0.0440673828125,0.00079921875,0
0.0365625,3.1953125,17,0.072567990748332,0.2633056640625,0.005244140625,0
0.05234375,2.7109375,15,0.085745524208993,0.36761474609375,0.0070294189453125,0
0.03890625,2.640625,18,0.059405830811251004,0.17645263671875,0.0032897705078125,0
0.03671875,2.796875,20,0.051194234141892996,0.13104248046875,0.0025573486328125,0
0.07890625,5.84375,25,0.10810083725682001,0.58428955078125,0.011395727539063,0
0.02,1.5078125,21,0.02619227283475,0.0343017578125,0.0005796875,0
0.023125,1.703125,23,0.029148059540903,0.04248046875,0.00072998046875,0
0.01484375,0.9453125,12,0.018454705954715,0.01702880859375,0.0002374267578125,0
0.01953125,1.5625,17,0.027929004580812003,0.03900146484375,0.0007348876953125,0
0.01734375,1.1640625,12,0.022669715825855002,0.02569580078125,0.0004552978515625,0
0.020625,1.4296875,18,0.028384222069663997,0.040283203125,0.0007291015625,0
0.0371875,2.328125,20,0.05605434723328799,0.1571044921875,0.00291708984375,0
0.02171875,1.421875,13,0.028958989051329,0.04193115234375,0.0007800048828125,0
0.02625,2.125,18,0.041132645565901,0.0845947265625,0.001620703125,0
0.03921875,2.609375,20,0.06836718705362199,0.23370361328125,0.0046002197265625,0
0.0665625,5.0859375,22,0.10146630059409,0.5147705078125,0.01016171875,0
0.07859375,6.5,23,0.11272221976223,0.63531494140625,0.012688500976562,0
0.05171875,3.734375,21,0.073196079236698,0.26788330078125,0.0053125244140625,0
0.08796875,7.03125,31,0.12856726261232,0.82647705078125,0.016516625976563,0
0.03484375,2.84375,26,0.053821264530155996,0.14483642578125,0.0027666259765625,0
0.0653125,5.0703125,27,0.11894515214479999,0.7073974609375,0.01366943359375,0
0.04625,3.6328125,25,0.068696712303064,0.2359619140625,0.004521484375,0
0.04640625,4.0,27,0.07463289060042501,0.27850341796875,0.0053497314453125,0
0.0746875,5.2734375,27,0.10836588052750001,0.587158203125,0.01174228515625,0
0.07046875,5.734375,25,0.10769354850976,0.57989501953125,0.011524047851563,0
0.04671875,3.6171875,26,0.066814005478829,0.22320556640625,0.0044629150390625,0
0.07328125,6.265625,30,0.099172602457155,0.49176025390625,0.0098332275390625,0
0.07203125,6.4296875,30,0.10806695515686,0.58392333984375,0.011641333007812,0
0.02859375,1.84375,15,0.043456043703667,0.09442138671875,0.0017721923828125,0
0.1571875,13.5703125,30,0.2281571039054,2.602783203125,0.05203369140625,0
0.1609375,12.984375,31,0.24477947664684002,2.995849609375,0.0599169921875,0
0.0796875,5.875,28,0.11298722618619,0.6383056640625,0.012761328125,0
0.0796875,5.2421875,23,0.10992051460601,0.6041259765625,0.011884765625,0
0.045625,3.6796875,24,0.063584343591799,0.2021484375,0.003976953125,0
0.075,5.890625,25,0.098685204216488,0.4869384765625,0.00965087890625,0
0.066875,5.34375,18,0.10372693644252,0.5379638671875,0.0107310546875,0
0.131875,10.609375,20,0.20651025246946,2.13232421875,0.04259482421875,0
0.23078125,18.3984375,26,0.32940412881159004,5.4253540039062,0.10850158691406,0
0.175625,13.1015625,22,0.25994384159130995,3.3785400390625,0.06757080078125,0
0.04484375,3.59375,25,0.059302999107339,0.17584228515625,0.0034629150390625,0
0.08375,6.2421875,26,0.11494733848592999,0.66064453125,0.013187890625,0
0.0390625,3.2265625,22,0.057218229448752,0.1636962890625,0.00316103515625,0
0.2125,17.1640625,31,0.30779267068109,4.73681640625,0.09473623046875,0
0.07578125,5.171875,22,0.10734158931594999,0.57611083984375,0.011399145507812,0
0.03328125,2.25,18,0.04325896312471,0.09356689453125,0.0018447509765625,0
0.12640625,9.2734375,26,0.17934410121501998,1.6082153320312,0.032157250976562995,0
0.04765625,3.7109375,23,0.067829418972338,0.23004150390625,0.0045322509765625,0
0.104375,8.546875,24,0.15279780092904002,1.1673583984375,0.02334091796875,0
0.07234375,5.6015625,30,0.10027428204991,0.50274658203125,0.010034399414062999,0
0.06640625,5.15625,26,0.08242094934314301,0.33966064453125,0.0067726806640625,0
0.0240625,1.75,22,0.03132802758713,0.049072265625,0.00092978515625,0
0.03234375,2.0,17,0.061822499823081994,0.19110107421875,0.0037057861328125,0
0.05,3.6953125,30,0.075696634461183,0.2864990234375,0.0055658203125,0
0.04296875,3.171875,25,0.07039058164538099,0.24774169921875,0.0048755126953125,0
0.0540625,4.5,31,0.07163683366467301,0.256591796875,0.0050755859375,0
0.0584375,4.40625,24,0.08615030470056402,0.37109375,0.007365625,0
0.04046875,2.7890625,25,0.056152258831457996,0.15765380859375,0.0030844970703125,0
0.058125,4.6171875,26,0.07670586067896001,0.294189453125,0.00577744140625,0
0.06015625,4.78125,28,0.093063895640979,0.43304443359375,0.0085235595703125,0
0.15140625,11.3984375,23,0.26462357182539004,3.5012817382812,0.068979516601562,0
0.20578125,16.0546875,25,0.33457755255228,5.5971069335938,0.11126125488281001,0
0.0903125,7.2578125,32,0.12613740337921,0.7955322265625,0.01587900390625,0
0.07859375,6.1484375,31,0.097721852964805,0.47747802734375,0.0094333251953125,0
0.03765625,3.328125,27,0.05279076845789401,0.13934326171875,0.0027130126953125,0
0.03421875,2.5859375,20,0.049718445552179004,0.12359619140625,0.0022607666015625,0
0.08640625,6.3984375,25,0.11970728459194001,0.71649169921875,0.014250512695313,0
0.11984375,10.125,32,0.16004378673312,1.2807006835938,0.025584106445312997,0
0.2903125,24.890625,33,0.38660746504853005,7.4732666015625,0.149464453125,0
0.40015625,34.1953125,29,0.50999171829979,13.004577636719,0.26008605957031,0
0.19453125,15.734375,32,0.26909271389593,3.6205444335938,0.072400122070313,0
0.076875,5.5703125,27,0.09882117688026198,0.48828125,0.009609375,0
0.0440625,3.046875,21,0.07806247497997999,0.3046875,0.005849609375,0
0.051875,3.78125,27,0.09024705673871002,0.4072265625,0.007972265625,0
0.02484375,1.6171875,19,0.051098766955524004,0.13055419921875,0.0023999267578125,0
0.0240625,1.6796875,20,0.038017265814364,0.072265625,0.00131875,0
0.1178125,8.40625,19,0.19837597471405,1.9676513671875,0.03887451171875,0
0.07359375,6.0625,30,0.094689304850786,0.44830322265625,0.0087070556640625,0
0.04796875,3.921875,25,0.07821089028629599,0.30584716796875,0.0060260986328125,0
0.078125,6.6171875,26,0.14406385574199,1.0377197265625,0.02066650390625,0
0.16609375,11.015625,24,0.27609202567373,3.8113403320312,0.076110571289062,0
0.131875,8.515625,18,0.23226655787317,2.6973876953125,0.05394736328125,0
0.06125,4.1640625,21,0.08791753060397,0.386474609375,0.0076294921875,0
0.1284375,8.671875,17,0.21050302477042998,2.215576171875,0.04409580078125,0
0.131875,9.6171875,24,0.19016337548277,1.80810546875,0.036148046875,0
0.064375,5.1875,24,0.086249433874954,0.3719482421875,0.00739169921875,0
0.028125,2.1484375,27,0.038081430021731,0.072509765625,0.0013736328125,0
0.03125,2.578125,27,0.045366347315494,0.1029052734375,0.0019517578125,0
0.0759375,6.6328125,30,0.11228277639513999,0.63037109375,0.01251357421875,0
0.06390625,5.5546875,32,0.095011049933021,0.45135498046875,0.0088823486328125,0
0.05265625,3.6796875,25,0.069990582513828,0.24493408203125,0.0048136962890625,0
0.100625,6.765625,22,0.13790777602260001,0.950927734375,0.0187935546875,0
0.0809375,5.40625,21,0.13205667284825,0.8719482421875,0.0173873046875,0
0.07921875,6.34375,24,0.10777286409099002,0.58074951171875,0.011462622070312,0
0.02546875,1.921875,22,0.038984296718358,0.07598876953125,0.0013896728515625,0
0.0378125,2.875,27,0.06259758007503201,0.1959228515625,0.00361220703125,0
0.084375,7.3515625,30,0.1249023055732,0.780029296875,0.0152490234375,0
0.0503125,3.921875,20,0.083968930265903,0.3525390625,0.00665078125,0
0.04921875,3.4921875,23,0.06542939598815702,0.21405029296875,0.0041046142578125,0
0.1153125,9.4140625,27,0.16396574527931,1.34423828125,0.026808203125,0
0.0665625,5.5078125,24,0.097952675116609,0.479736328125,0.00946103515625,0
0.07953125,6.5859375,29,0.10451828675225001,0.54620361328125,0.010793969726562,0
0.03203125,2.625,20,0.044920176598328,0.10089111328125,0.0018496337890625,0
0.0734375,5.515625,20,0.12052537984798,0.726318359375,0.01452392578125,0
0.1209375,9.1484375,27,0.16835167108244,1.4171142578125,0.02833251953125,0
0.1003125,8.359375,24,0.14774509562503002,1.0914306640625,0.02180947265625,0
0.17625,12.9921875,28,0.26293676461746,3.456787109375,0.06879580078125,0
0.05515625,4.5078125,27,0.079110965876261,0.31292724609375,0.0061846923828125,0
0.05765625,4.046875,27,0.10160455859913001,0.51617431640625,0.010112329101562,0
0.1040625,6.5625,24,0.18271231229039003,1.669189453125,0.0333072265625,0
0.07390625,6.1484375,25,0.12296686386736,0.75604248046875,0.014997778320313,0
0.0859375,6.0078125,27,0.11287913544473,0.6370849609375,0.01264169921875,0
0.17578125,14.5625,28,0.24657566900827,3.0399780273438,0.06054055175781299,0
0.14546875,11.4453125,24,0.22200975221401,2.4644165039062003,0.04916525878906299,0
0.126875,9.328125,27,0.20305888347040998,2.0616455078125,0.0407125,0
0.041875,3.0390625,20,0.059107125998055,0.1746826171875,0.00339365234375,0
0.0375,2.796875,26,0.05208072910155901,0.1356201171875,0.0025482421875,0
0.05390625,3.7890625,22,0.07266045014741498,0.26397705078125,0.0052590087890625,0
0.166875,13.1796875,26,0.23667104511061,2.8006591796875,0.05591318359375,0
0.04421875,3.2734375,21,0.060141028918492996,0.18084716796875,0.0035835205078125,0
0.108125,7.71875,23,0.15345945616839998,1.177490234375,0.02333408203125,0
0.0759375,5.6640625,20,0.12948968346938,0.83837890625,0.0166265625,0
0.07765625,5.8671875,27,0.11007033440316999,0.60577392578125,0.012012329101563,0
0.05671875,4.03125,21,0.08969757129864199,0.40228271484375,0.0080327392578125,0
0.17109375,11.765625,22,0.27930534296604,3.9005737304688,0.077843286132812,0
0.18796875,14.0390625,19,0.30559360459911,4.6693725585938,0.093366918945313,0
0.12921875,10.3359375,26,0.23411704554693,2.7405395507812,0.054805297851562004,0
0.08640625,6.6015625,27,0.11667073560613,0.68060302734375,0.013607934570313,0
0.09609375,6.640625,23,0.13342231324585,0.89007568359375,0.017771606445313,0
0.10703125,6.6875,21,0.16672321631787002,1.3898315429688,0.027793676757813,0
0.0978125,8.453125,32,0.13794317783965,0.951416015625,0.0190220703125,0
0.055625,4.1484375,23,0.089649926798632,0.40185546875,0.00802734375,0
0.07484375,5.2734375,23,0.10764819908213001,0.57940673828125,0.011579321289062,0
0.085625,5.84375,23,0.11722915926189,0.6871337890625,0.013488671875,0
0.18484375,15.203125,30,0.25341177813368,3.2108764648438,0.06418039550781299,0
0.165625,12.9609375,27,0.24757120976851998,3.0645751953125,0.06128994140625,0
0.20875,17.4609375,29,0.31503658021728004,4.96240234375,0.09909951171875,0
0.330625,28.3828125,29,0.46404408633502,10.766845703125,0.2152490234375,0
0.16984375,13.6171875,23,0.26107546876454,3.4080200195312,0.06811096191406299,0
0.06546875,4.28125,23,0.086440290537023,0.37359619140625,0.0072955322265625,0
0.07296875,6.03125,28,0.1106896438951,0.61260986328125,0.012129125976563,0
0.07234375,5.390625,19,0.11927822484375,0.71136474609375,0.014218481445313,0
0.08421875,6.5625,25,0.13783251697033,0.94989013671875,0.018982543945312,0
0.05375,3.359375,19,0.07798424820917402,0.3040771484375,0.00587490234375,0
0.14140625,9.3359375,21,0.20683215662857,2.1389770507812,0.042398071289062006,0
0.235,17.2734375,22,0.34676940960457,6.012451171875,0.12022705078125,0
0.1775,12.3828125,24,0.26415031823755,3.48876953125,0.069586328125,0
0.0809375,5.609375,23,0.10068127308491999,0.5068359375,0.010105078125,0
0.101875,7.4140625,29,0.13045705411648,0.8509521484375,0.01675498046875,0
0.04765625,3.3359375,22,0.063382442240537,0.20086669921875,0.0038725830078125,0
0.05640625,3.8203125,23,0.075881859759925,0.28790283203125,0.0056842041015625,0
0.07109375,4.671875,20,0.092366087611336,0.42657470703125,0.0084679931640625,0
0.26859375,17.296875,22,0.33551754273715,5.6286010742188,0.11255148925781,0
0.29234375,20.4921875,25,0.360478943018,6.4972534179688,0.12965500488281,0
0.25640625,18.6171875,27,0.33312961711153005,5.5487670898438,0.11097414550781,0
0.08203125,6.328125,28,0.10511224469288001,0.55242919921875,0.010980004882811999,0
0.1171875,8.671875,26,0.16530777403453,1.3663330078125,0.02717041015625,0
0.0996875,8.046875,25,0.15346741052663002,1.1776123046875,0.0234458984375,0
0.13375,10.1640625,28,0.20294463145770003,2.059326171875,0.0411548828125,0
0.07140625,5.53125,27,0.10004271548631,0.50042724609375,0.0099850830078125,0
0.213125,14.4609375,25,0.30870350105320005,4.764892578125,0.09529775390625,0
0.23859375,16.6484375,25,0.32116312358849997,5.1572875976562,0.10243186035156,0
0.04578125,3.0859375,21,0.05932357970803,0.17596435546875,0.0034161376953125,0
0.16015625,10.9375,20,0.27679853980942,3.8308715820312,0.076271704101563,0
0.30234375,23.171875,25,0.39921951443175,7.9688110351562,0.15937600097656002,0
0.2034375,16.2421875,29,0.28815313040552004,4.151611328125,0.0830259765625,0
0.13515625,8.421875,23,0.19569025968191,1.9147338867188,0.037982934570312994,0
0.10921875,7.28125,20,0.15955489234704,1.2728881835938,0.025341528320312997,0
0.099375,6.96875,27,0.13543369283988999,0.9171142578125,0.01799072265625,0
0.1465625,10.7890625,25,0.17657632689223002,1.5589599609375,0.03111318359375,0
0.098125,7.6484375,24,0.15300537419075,1.1705322265625,0.02325439453125,0
0.2340625,17.9140625,23,0.37015423833350003,6.8507080078125,0.136865625,0
0.28421875,20.234375,25,0.4239460161499,8.986511230468802,0.17870422363281,0
0.22796875,14.6875,19,0.34554750204838003,5.9701538085938,0.11920969238281,0
0.07109375,5.0625,21,0.09992062279316999,0.49920654296875,0.0099048095703125,0
0.08828125,6.3984375,25,0.12334351643631,0.76068115234375,0.015211645507812,0
0.0734375,6.21875,27,0.11541365820387,0.666015625,0.013273046875,0
0.124375,10.2734375,28,0.16271770272853,1.3238525390625,0.02641103515625,0
0.06,4.75,27,0.092465153909459,0.427490234375,0.00854970703125,0
0.16421875,12.3671875,23,0.26765082269746,3.5818481445312,0.071492211914063,0
0.201875,12.40625,20,0.31422181904269,4.936767578125,0.0982837890625,0
0.1490625,9.65625,17,0.22602306471077,2.5543212890625,0.05106728515625,0
0.0721875,5.2109375,21,0.09212126858114801,0.42431640625,0.0083984375,0
0.073125,5.484375,27,0.094914640928046,0.450439453125,0.00899228515625,0
0.0509375,4.1796875,22,0.07297059018022299,0.2662353515625,0.005319921875,0
0.12109375,10.453125,32,0.17002915076355,1.4454956054688,0.028909301757812998,0
0.08921875,6.1328125,24,0.12234983621515,0.74847412109375,0.014951684570313,0
0.24953125,17.8515625,23,0.33908230068912,5.7488403320312,0.11493576660156,0
0.3296875,24.40625,21,0.43190902995451,9.3272705078125,0.1865171875,0
0.21171875,15.0859375,22,0.2800517007235,3.9214477539062,0.07838791503906199,0
0.07875,5.2265625,23,0.10088717785849001,0.5089111328125,0.01004453125,0
0.2434375,16.953125,26,0.34137317488527,5.8267822265625,0.11652587890625,0
0.29265625,20.9765625,25,0.39085149683496007,7.6382446289062,0.15274436035156,0
0.2153125,15.515625,26,0.32444363435734,5.26318359375,0.105207421875,0
0.085,6.453125,16,0.13704648219217,0.9390869140625,0.01845322265625,0
0.1209375,7.8203125,24,0.16716559435931,1.397216796875,0.02736533203125,0
0.1509375,11.2265625,26,0.21620732057160003,2.3372802734375,0.0467291015625,0
